Time(s),h(m),V(V),Encoder,ADC
0,0,8,0,0.0386005
0.005,0,8,0,0.0386005
0.01,0.000238,8,1,0.0386005
0.015,0.000238,8,1,0.0386005
0.02,0.000476,8,2,0.0386005
0.025,0.000952,8,4,0.0386005
0.03,0.001428,8,6,0.0386005
0.035,0.001666,8,7,0.0386005
0.04,0.00238,8,10,0.0386005
0.045,0.002856,8,12,0.0386005
0.05,0.003332,8,14,0.0386005
0.055,0.004046,8,17,0.0386005
0.06,0.00476,8,20,0.0386005
0.065,0.005712,8,24,0.0386005
0.07,0.006664,8,28,0.0386005
0.075,0.007378,8,31,0.0386005
0.08,0.00833,8,35,0.0386005
0.085,0.00952,8,40,0.0386005
0.09,0.010472,8,44,0.0386005
0.095,0.011662,8,49,0.0386005
0.1,0.012852,8,54,4.0817
0.105,0.013804,8,58,4.0817
0.11,0.015232,8,64,4.0817
0.115,0.016422,8,69,4.0817
0.12,0.01785,8,75,4.0817
0.125,0.01904,8,80,4.0817
0.13,0.020468,8,86,4.0817
0.135,0.021896,8,92,4.0817
0.14,0.023324,8,98,4.0817
0.145,0.02499,8,105,4.0817
0.15,0.026418,8,111,4.0817
0.155,0.028084,8,118,4.0817
0.16,0.02975,8,125,4.0817
0.165,0.031416,8,132,4.0817
0.17,0.033082,8,139,4.0817
0.175,0.034748,8,146,4.0817
0.18,0.036652,8,154,4.0817
0.185,0.038318,8,161,4.0817
0.19,0.040222,8,169,4.0817
0.195,0.041888,8,176,4.0817
0.2,0.043792,8,184,4.0817
0.205,0.045696,8,192,2.93791
0.21,0.0476,8,200,2.93791
0.215,0.049504,8,208,2.93791
0.22,0.051408,8,216,2.93791
0.225,0.053312,8,224,2.93791
0.23,0.055454,8,233,2.93791
0.235,0.057358,8,241,2.93791
0.24,0.0595,8,250,2.93791
0.245,0.061404,8,258,2.93791
0.25,0.063546,8,267,2.93791
0.255,0.06545,8,275,2.93791
0.26,0.067592,8,284,2.93791
0.265,0.069734,8,293,2.93791
0.27,0.071876,8,302,2.93791
0.275,0.074018,8,311,2.93791
0.28,0.07616,8,320,2.93791
0.285,0.078302,8,329,2.93791
0.29,0.080444,8,338,2.93791
0.295,0.082824,8,348,2.93791
0.3,0.084966,8,357,2.93791
0.305,0.087346,8,367,2.93791
0.31,0.089488,8,376,2.18627
0.315,0.091868,8,386,2.18627
0.32,0.09401,8,395,2.18627
0.325,0.09639,8,405,2.18627
0.33,0.09877,8,415,2.18627
0.335,0.10091,8,424,2.18627
0.34,0.10329,8,434,2.18627
0.345,0.10567,8,444,2.18627
0.35,0.10805,8,454,2.18627
0.355,0.11043,8,464,2.18627
0.36,0.11281,8,474,2.18627
0.365,0.11519,8,484,2.18627
0.37,0.11781,8,495,2.18627
0.375,0.12019,8,505,2.18627
0.38,0.12257,8,515,2.18627
0.385,0.12495,8,525,2.18627
0.39,0.12757,8,536,2.18627
0.395,0.12995,8,546,2.18627
0.4,0.13233,8,556,2.18627
0.405,0.13495,8,567,2.18627
0.41,0.13733,8,577,2.18627
0.415,0.13994,8,588,1.72549
0.42,0.14232,8,598,1.72549
0.425,0.14494,8,609,1.72549
0.43,0.14732,8,619,1.72549
0.435,0.14994,8,630,1.72549
0.44,0.15232,8,640,1.72549
0.445,0.15494,8,651,1.72549
0.45,0.15756,8,662,1.72549
0.455,0.16017,8,673,1.72549
0.46,0.16279,8,684,1.72549
0.465,0.16517,8,694,1.72549
0.47,0.16779,8,705,1.72549
0.475,0.17041,8,716,1.72549
0.48,0.17303,8,727,1.72549
0.485,0.17564,8,738,1.72549
0.49,0.17826,8,749,1.72549
0.495,0.18088,8,760,1.72549
0.5,0.1835,8,771,1.72549
0.505,0.18612,8,782,1.72549
0.51,0.18873,8,793,1.72549
0.515,0.19135,8,804,1.72549
0.52,0.19397,8,815,1.72549
0.525,0.19659,8,826,1.26144
0.53,0.19921,8,837,1.26144
0.535,0.20182,8,848,1.26144
0.54,0.20468,8,860,1.26144
0.545,0.2073,8,871,1.26144
0.55,0.20992,8,882,1.26144
0.555,0.21253,8,893,1.26144
0.56,0.21515,8,904,1.26144
0.565,0.21777,8,915,1.26144
0.57,0.22039,8,926,1.26144
0.575,0.22324,8,938,1.26144
0.58,0.22586,8,949,1.26144
0.585,0.22848,8,960,1.26144
0.59,0.2311,8,971,1.26144
0.595,0.23395,8,983,1.26144
0.6,0.23657,8,994,1.26144
0.605,0.23919,8,1005,1.26144
0.61,0.24205,8,1017,1.26144
0.615,0.24466,8,1028,1.26144
0.62,0.24752,8,1040,1.26144
0.625,0.25014,8,1051,1.26144
0.63,0.25276,8,1062,1.36601
0.635,0.25561,8,1074,1.36601
0.64,0.25823,8,1085,1.36601
0.645,0.26109,8,1097,1.36601
0.65,0.2637,8,1108,1.36601
0.655,0.26656,8,1120,1.36601
0.66,0.26918,8,1131,1.36601
0.665,0.2718,8,1142,1.36601
0.67,0.27465,8,1154,1.36601
0.675,0.27727,8,1165,1.36601
0.68,0.28013,8,1177,1.36601
0.685,0.28274,8,1188,1.36601
0.69,0.2856,8,1200,1.36601
0.695,0.28846,8,1212,1.36601
0.7,0.29107,8,1223,1.36601
0.705,0.29369,8,1234,1.36601
0.71,0.29655,8,1246,1.36601
0.715,0.2994,8,1258,1.36601
0.72,0.30202,8,1269,1.36601
0.725,0.30488,8,1281,1.36601
0.73,0.3075,8,1292,1.36601
0.735,0.31035,8,1304,1.20261
0.74,0.31321,8,1316,1.20261
0.745,0.31583,8,1327,1.20261
0.75,0.31868,8,1339,1.20261
0.755,0.32154,8,1351,1.20261
0.76,0.32416,8,1362,1.20261
0.765,0.32701,8,1374,1.20261
0.77,0.32987,8,1386,1.20261
0.775,0.33272,8,1398,1.20261
0.78,0.33534,8,1409,1.20261
0.785,0.3382,8,1421,1.20261
0.79,0.34082,8,1432,1.20261
0.795,0.34367,8,1444,1.20261
0.8,0.34653,8,1456,1.20261
0.805,0.34938,8,1468,1.20261
0.81,0.352,8,1479,1.20261
0.815,0.35486,8,1491,1.20261
0.82,0.35771,8,1503,1.20261
0.825,0.36033,8,1514,1.20261
0.83,0.36319,8,1526,1.20261
0.835,0.36604,8,1538,1.20261
0.84,0.3689,8,1550,1.2549
0.845,0.37152,8,1561,1.2549
0.85,0.37437,8,1573,1.2549
0.855,0.37723,8,1585,1.2549
0.86,0.37985,8,1596,1.2549
0.865,0.3827,8,1608,1.2549
0.87,0.38556,8,1620,1.2549
0.875,0.38842,8,1632,1.2549
0.88,0.39127,8,1644,1.2549
0.885,0.39389,8,1655,1.2549
0.89,0.39674,8,1667,1.2549
0.895,0.3996,8,1679,1.2549
0.9,0.40246,8,1691,1.2549
0.905,0.40507,8,1702,1.2549
0.91,0.40793,8,1714,1.2549
0.915,0.41079,8,1726,1.2549
0.92,0.41364,8,1738,1.2549
0.925,0.4165,8,1750,1.2549
0.93,0.41912,8,1761,1.2549
0.935,0.42197,8,1773,1.2549
0.94,0.42483,8,1785,1.2549
0.945,0.42768,8,1797,1.2549
0.95,0.43054,8,1809,1.38889
0.955,0.43316,8,1820,1.38889
0.96,0.43601,8,1832,1.38889
0.965,0.43887,8,1844,1.38889
0.97,0.44173,8,1856,1.38889
0.975,0.44458,8,1868,1.38889
0.98,0.4472,8,1879,1.38889
0.985,0.45006,8,1891,1.38889
0.99,0.45291,8,1903,1.38889
0.995,0.45577,8,1915,1.38889
1,0.45862,8,1927,1.38889
1.005,0.46148,8,1939,1.38889
1.01,0.4641,8,1950,1.38889
1.015,0.46695,8,1962,1.38889
1.02,0.46981,8,1974,1.38889
1.025,0.47267,8,1986,1.38889
1.03,0.47552,8,1998,1.38889
1.035,0.47838,8,2010,1.38889
1.04,0.48123,8,2022,1.38889
1.045,0.48409,8,2034,1.38889
1.05,0.48695,8,2046,1.38889
1.055,0.4898,8,2058,1.27451
1.06,0.49242,8,2069,1.27451
1.065,0.49528,8,2081,1.27451
1.07,0.49813,8,2093,1.27451
1.075,0.50099,8,2105,1.27451
1.08,0.50384,8,2117,1.27451
1.085,0.5067,8,2129,1.27451
1.09,0.50932,8,2140,1.27451
1.095,0.51217,8,2152,1.27451
1.1,0.51503,8,2164,1.27451
1.105,0.51789,8,2176,1.27451
1.11,0.52074,8,2188,1.27451
1.115,0.5236,8,2200,1.27451
1.12,0.52645,8,2212,1.27451
1.125,0.52907,8,2223,1.27451
1.13,0.53193,8,2235,1.27451
1.135,0.53478,8,2247,1.27451
1.14,0.53764,8,2259,1.27451
1.145,0.5405,8,2271,1.27451
1.15,0.54311,8,2282,1.27451
1.155,0.54597,8,2294,1.27451
1.16,0.54883,8,2306,1.15686
1.165,0.55168,8,2318,1.15686
1.17,0.55454,8,2330,1.15686
1.175,0.55739,8,2342,1.15686
1.18,0.56025,8,2354,1.15686
1.185,0.56311,8,2366,1.15686
1.19,0.56572,8,2377,1.15686
1.195,0.56858,8,2389,1.15686
1.2,0.57144,8,2401,1.15686
1.205,0.57429,8,2413,1.15686
1.21,0.57715,8,2425,1.15686
1.215,0.58,8,2437,1.15686
1.22,0.58286,8,2449,1.15686
1.225,0.58572,8,2461,1.15686
1.23,0.58857,8,2473,1.15686
1.235,0.59119,8,2484,1.15686
1.24,0.59405,8,2496,1.15686
1.245,0.5969,8,2508,1.15686
1.25,0.59976,8,2520,1.15686
1.255,0.60261,8,2532,1.15686
1.26,0.60547,8,2544,1.15686
1.265,0.60833,8,2556,1.15686
1.27,0.61118,8,2568,1.26797
1.275,0.61404,8,2580,1.26797
1.28,0.61689,8,2592,1.26797
1.285,0.61951,8,2603,1.26797
1.29,0.62237,8,2615,1.26797
1.295,0.62522,8,2627,1.26797
1.3,0.62808,8,2639,1.26797
1.305,0.63094,8,2651,1.26797
1.31,0.63379,8,2663,1.26797
1.315,0.63665,8,2675,1.26797
1.32,0.6395,8,2687,1.26797
1.325,0.64236,8,2699,1.26797
1.33,0.64522,8,2711,1.26797
1.335,0.64783,8,2722,1.26797
1.34,0.65069,8,2734,1.26797
1.345,0.65355,8,2746,1.26797
1.35,0.6564,8,2758,1.26797
1.355,0.65926,8,2770,1.26797
1.36,0.66211,8,2782,1.26797
1.365,0.66497,8,2794,1.26797
1.37,0.66783,8,2806,1.26797
1.375,0.67044,8,2817,1.19608
1.38,0.6733,8,2829,1.19608
1.385,0.67616,8,2841,1.19608
1.39,0.67901,8,2853,1.19608
1.395,0.68187,8,2865,1.19608
1.4,0.68472,8,2877,1.19608
1.405,0.68758,8,2889,1.19608
1.41,0.6902,8,2900,1.19608
1.415,0.69305,8,2912,1.19608
1.42,0.69591,8,2924,1.19608
1.425,0.69877,8,2936,1.19608
1.43,0.70162,8,2948,1.19608
1.435,0.70448,8,2960,1.19608
1.44,0.70733,8,2972,1.19608
1.445,0.71019,8,2984,1.19608
1.45,0.71305,8,2996,1.19608
1.455,0.71566,8,3007,1.19608
1.46,0.71852,8,3019,1.19608
1.465,0.72138,8,3031,1.19608
1.47,0.72423,8,3043,1.19608
1.475,0.72709,8,3055,1.19608
1.48,0.72994,8,3067,1.23856
1.485,0.73256,8,3078,1.23856
1.49,0.73542,8,3090,1.23856
1.495,0.73827,8,3102,1.23856
1.5,0.74113,8,3114,1.23856
1.505,0.74399,8,3126,1.23856
1.51,0.74684,8,3138,1.23856
1.515,0.7497,8,3150,1.23856
1.52,0.75255,8,3162,1.23856
1.525,0.75541,8,3174,1.23856
1.53,0.75827,8,3186,1.23856
1.535,0.76088,8,3197,1.23856
1.54,0.76374,8,3209,1.23856
1.545,0.7666,8,3221,1.23856
1.55,0.76945,8,3233,1.23856
1.555,0.77231,8,3245,1.23856
1.56,0.77516,8,3257,1.23856
1.565,0.77778,8,3268,1.23856
1.57,0.78064,8,3280,1.23856
1.575,0.78349,8,3292,1.23856
1.58,0.78635,8,3304,1.23856
1.585,0.78921,8,3316,1.18954
1.59,0.79206,8,3328,1.18954
1.595,0.79492,8,3340,1.18954
1.6,0.79777,8,3352,1.18954
1.605,0.80063,8,3364,1.18954
1.61,0.80349,8,3376,1.18954
1.615,0.80634,8,3388,1.18954
1.62,0.8092,8,3400,1.18954
1.625,0.81205,8,3412,1.18954
1.63,0.81467,8,3423,1.18954
1.635,0.81753,8,3435,1.18954
1.64,0.82038,8,3447,1.18954
1.645,0.82324,8,3459,1.18954
1.65,0.8261,8,3471,1.18954
1.655,0.82895,8,3483,1.18954
1.66,0.83157,8,3494,1.18954
1.665,0.83443,8,3506,1.18954
1.67,0.83728,8,3518,1.18954
1.675,0.84014,8,3530,1.18954
1.68,0.84299,8,3542,1.18954
1.685,0.84585,8,3554,1.18954
1.69,0.84871,8,3566,1.18954
1.695,0.85156,8,3578,1.2549
1.7,0.85442,8,3590,1.2549
1.705,0.85704,8,3601,1.2549
1.71,0.85989,8,3613,1.2549
1.715,0.86275,8,3625,1.2549
1.72,0.8656,8,3637,1.2549
1.725,0.86846,8,3649,1.2549
1.73,0.87108,8,3660,1.2549
1.735,0.87393,8,3672,1.2549
1.74,0.87679,8,3684,1.2549
1.745,0.87965,8,3696,1.2549
1.75,0.8825,8,3708,1.2549
1.755,0.88536,8,3720,1.2549
1.76,0.88821,8,3732,1.2549
1.765,0.89107,8,3744,1.2549
1.77,0.89369,8,3755,1.2549
1.775,0.89654,8,3767,1.2549
1.78,0.8994,8,3779,1.2549
1.785,0.90226,8,3791,1.2549
1.79,0.90511,8,3803,1.2549
1.795,0.90797,8,3815,1.2549
1.8,0.91082,8,3827,1.17974
1.805,0.91344,8,3838,1.17974
1.81,0.9163,8,3850,1.17974
1.815,0.91915,8,3862,1.17974
1.82,0.92201,8,3874,1.17974
1.825,0.92487,8,3886,1.17974
1.83,0.92772,8,3898,1.17974
1.835,0.93058,8,3910,1.17974
1.84,0.93343,8,3922,1.17974
1.845,0.93629,8,3934,1.17974
1.85,0.93915,8,3946,1.17974
1.855,0.942,8,3958,1.17974
1.86,0.94462,8,3969,1.17974
1.865,0.94748,8,3981,1.17974
1.87,0.95033,8,3993,1.17974
1.875,0.95319,8,4005,1.17974
1.88,0.95604,8,4017,1.17974
1.885,0.9589,8,4029,1.17974
1.89,0.96152,8,4040,1.17974
1.895,0.96437,8,4052,1.17974
1.9,0.96723,8,4064,1.17974
1.905,0.97009,8,4076,1.08824
1.91,0.97294,8,4088,1.08824
1.915,0.9758,8,4100,1.08824
1.92,0.97865,8,4112,1.08824
1.925,0.98151,8,4124,1.08824
1.93,0.98413,8,4135,1.08824
1.935,0.98698,8,4147,1.08824
1.94,0.98984,8,4159,1.08824
1.945,0.9927,8,4171,1.08824
1.95,0.99555,8,4183,1.08824
1.955,0.99817,8,4194,1.08824
1.96,1.001,8,4206,1.08824
