Time(s),h(m),V(V),Encoder,ADC
0,0,-8,0,0.0196078
0.005,0,-8,0,0.0196078
0.01,-0.000238,-8,-1,0.0196078
0.015,-0.000238,-8,-1,0.0196078
0.02,-0.000714,-8,-3,0.0196078
0.025,-0.000952,-8,-4,0.0196078
0.03,-0.001428,-8,-6,0.0196078
0.035,-0.001904,-8,-8,0.0196078
0.04,-0.00238,-8,-10,0.0196078
0.045,-0.003094,-8,-13,0.0196078
0.05,-0.00357,-8,-15,0.0196078
0.055,-0.004284,-8,-18,0.0196078
0.06,-0.005236,-8,-22,0.0196078
0.065,-0.00595,-8,-25,0.0196078
0.07,-0.006902,-8,-29,0.0196078
0.075,-0.007616,-8,-32,0.0196078
0.08,-0.008806,-8,-37,0.0196078
0.085,-0.009758,-8,-41,0.0196078
0.09,-0.01071,-8,-45,0.0196078
0.095,-0.0119,-8,-50,-4.23529
0.1,-0.012852,-8,-54,-4.23529
0.105,-0.014042,-8,-59,-4.23529
0.11,-0.015232,-8,-64,-4.23529
0.115,-0.016422,-8,-69,-4.23529
0.12,-0.017612,-8,-74,-4.23529
0.125,-0.018802,-8,-79,-4.23529
0.13,-0.019992,-8,-84,-4.23529
0.135,-0.02142,-8,-90,-4.23529
0.14,-0.02261,-8,-95,-4.23529
0.145,-0.0238,-8,-100,-4.23529
0.15,-0.025228,-8,-106,-4.23529
0.155,-0.026418,-8,-111,-4.23529
0.16,-0.027846,-8,-117,-4.23529
0.165,-0.029036,-8,-122,-4.23529
0.17,-0.030464,-8,-128,-4.23529
0.175,-0.031892,-8,-134,-4.23529
0.18,-0.03332,-8,-140,-4.23529
0.185,-0.034748,-8,-146,-4.23529
0.19,-0.035938,-8,-151,-4.23529
0.195,-0.037366,-8,-157,-4.23529
0.2,-0.039032,-8,-164,-4.23529
0.205,-0.04046,-8,-170,-3.06863
0.21,-0.041888,-8,-176,-3.06863
0.215,-0.043316,-8,-182,-3.06863
0.22,-0.044982,-8,-189,-3.06863
0.225,-0.046648,-8,-196,-3.06863
0.23,-0.048076,-8,-202,-3.06863
0.235,-0.049742,-8,-209,-3.06863
0.24,-0.051408,-8,-216,-3.06863
0.245,-0.053074,-8,-223,-3.06863
0.25,-0.05474,-8,-230,-3.06863
0.255,-0.056644,-8,-238,-3.06863
0.26,-0.05831,-8,-245,-3.06863
0.265,-0.059976,-8,-252,-3.06863
0.27,-0.06188,-8,-260,-3.06863
0.275,-0.063784,-8,-268,-3.06863
0.28,-0.06545,-8,-275,-3.06863
0.285,-0.067354,-8,-283,-3.06863
0.29,-0.069258,-8,-291,-3.06863
0.295,-0.071162,-8,-299,-3.06863
0.3,-0.072828,-8,-306,-3.06863
0.305,-0.074732,-8,-314,-3.06863
0.31,-0.076636,-8,-322,-2.65686
0.315,-0.07854,-8,-330,-2.65686
0.32,-0.080444,-8,-338,-2.65686
0.325,-0.082348,-8,-346,-2.65686
0.33,-0.084252,-8,-354,-2.65686
0.335,-0.086156,-8,-362,-2.65686
0.34,-0.08806,-8,-370,-2.65686
0.345,-0.090202,-8,-379,-2.65686
0.35,-0.092106,-8,-387,-2.65686
0.355,-0.09401,-8,-395,-2.65686
0.36,-0.095914,-8,-403,-2.65686
0.365,-0.097818,-8,-411,-2.65686
0.37,-0.099722,-8,-419,-2.65686
0.375,-0.10163,-8,-427,-2.65686
0.38,-0.10377,-8,-436,-2.65686
0.385,-0.10567,-8,-444,-2.65686
0.39,-0.10758,-8,-452,-2.65686
0.395,-0.10948,-8,-460,-2.65686
0.4,-0.11138,-8,-468,-2.65686
0.405,-0.11353,-8,-477,-2.65686
0.41,-0.11543,-8,-485,-2.65686
0.415,-0.11757,-8,-494,-2.45098
0.42,-0.11948,-8,-502,-2.45098
0.425,-0.12138,-8,-510,-2.45098
0.43,-0.12352,-8,-519,-2.45098
0.435,-0.12566,-8,-528,-2.45098
0.44,-0.12757,-8,-536,-2.45098
0.445,-0.12971,-8,-545,-2.45098
0.45,-0.13161,-8,-553,-2.45098
0.455,-0.13376,-8,-562,-2.45098
0.46,-0.1359,-8,-571,-2.45098
0.465,-0.13804,-8,-580,-2.45098
0.47,-0.13994,-8,-588,-2.45098
0.475,-0.14209,-8,-597,-2.45098
0.48,-0.14423,-8,-606,-2.45098
0.485,-0.14637,-8,-615,-2.45098
0.49,-0.14851,-8,-624,-2.45098
0.495,-0.15065,-8,-633,-2.45098
0.5,-0.1528,-8,-642,-2.45098
0.505,-0.15494,-8,-651,-2.45098
0.51,-0.15708,-8,-660,-2.45098
0.515,-0.15922,-8,-669,-2.45098
0.52,-0.16136,-8,-678,-2.45098
0.525,-0.16327,-8,-686,-2.15686
0.53,-0.16565,-8,-696,-2.15686
0.535,-0.16755,-8,-704,-2.15686
0.54,-0.16993,-8,-714,-2.15686
0.545,-0.17184,-8,-722,-2.15686
0.55,-0.17422,-8,-732,-2.15686
0.555,-0.17636,-8,-741,-2.15686
0.56,-0.1785,-8,-750,-2.15686
0.565,-0.18064,-8,-759,-2.15686
0.57,-0.18278,-8,-768,-2.15686
0.575,-0.18493,-8,-777,-2.15686
0.58,-0.18707,-8,-786,-2.15686
0.585,-0.18921,-8,-795,-2.15686
0.59,-0.19135,-8,-804,-2.15686
0.595,-0.19349,-8,-813,-2.15686
0.6,-0.19564,-8,-822,-2.15686
0.605,-0.19778,-8,-831,-2.15686
0.61,-0.19992,-8,-840,-2.15686
0.615,-0.2023,-8,-850,-2.15686
0.62,-0.20444,-8,-859,-2.15686
0.625,-0.20658,-8,-868,-2.15686
0.63,-0.20873,-8,-877,-2.19281
0.635,-0.21087,-8,-886,-2.19281
0.64,-0.21325,-8,-896,-2.19281
0.645,-0.21539,-8,-905,-2.19281
0.65,-0.21753,-8,-914,-2.19281
0.655,-0.21967,-8,-923,-2.19281
0.66,-0.22205,-8,-933,-2.19281
0.665,-0.2242,-8,-942,-2.19281
0.67,-0.22634,-8,-951,-2.19281
0.675,-0.22872,-8,-961,-2.19281
0.68,-0.23086,-8,-970,-2.19281
0.685,-0.23324,-8,-980,-2.19281
0.69,-0.23538,-8,-989,-2.19281
0.695,-0.23752,-8,-998,-2.19281
0.7,-0.2399,-8,-1008,-2.19281
0.705,-0.24205,-8,-1017,-2.19281
0.71,-0.24419,-8,-1026,-2.19281
0.715,-0.24657,-8,-1036,-2.19281
0.72,-0.24871,-8,-1045,-2.19281
0.725,-0.25109,-8,-1055,-2.19281
0.73,-0.25323,-8,-1064,-2.19281
0.735,-0.25561,-8,-1074,-2.04902
0.74,-0.25775,-8,-1083,-2.04902
0.745,-0.2599,-8,-1092,-2.04902
0.75,-0.26228,-8,-1102,-2.04902
0.755,-0.26442,-8,-1111,-2.04902
0.76,-0.26656,-8,-1120,-2.04902
0.765,-0.26894,-8,-1130,-2.04902
0.77,-0.27108,-8,-1139,-2.04902
0.775,-0.27346,-8,-1149,-2.04902
0.78,-0.2756,-8,-1158,-2.04902
0.785,-0.27798,-8,-1168,-2.04902
0.79,-0.28013,-8,-1177,-2.04902
0.795,-0.28227,-8,-1186,-2.04902
0.8,-0.28465,-8,-1196,-2.04902
0.805,-0.28679,-8,-1205,-2.04902
0.81,-0.28917,-8,-1215,-2.04902
0.815,-0.29131,-8,-1224,-2.04902
0.82,-0.29369,-8,-1234,-2.04902
0.825,-0.29583,-8,-1243,-2.04902
0.83,-0.29798,-8,-1252,-2.04902
0.835,-0.30036,-8,-1262,-2.04902
0.84,-0.3025,-8,-1271,-1.94118
0.845,-0.30488,-8,-1281,-1.94118
0.85,-0.30702,-8,-1290,-1.94118
0.855,-0.3094,-8,-1300,-1.94118
0.86,-0.31154,-8,-1309,-1.94118
0.865,-0.31392,-8,-1319,-1.94118
0.87,-0.31606,-8,-1328,-1.94118
0.875,-0.31844,-8,-1338,-1.94118
0.88,-0.32082,-8,-1348,-1.94118
0.885,-0.32297,-8,-1357,-1.94118
0.89,-0.32535,-8,-1367,-1.94118
0.895,-0.32749,-8,-1376,-1.94118
0.9,-0.32987,-8,-1386,-1.94118
0.905,-0.33201,-8,-1395,-1.94118
0.91,-0.33439,-8,-1405,-1.94118
0.915,-0.33653,-8,-1414,-1.94118
0.92,-0.33891,-8,-1424,-1.94118
0.925,-0.34129,-8,-1434,-1.94118
0.93,-0.34343,-8,-1443,-1.94118
0.935,-0.34581,-8,-1453,-1.94118
0.94,-0.34796,-8,-1462,-1.94118
0.945,-0.35034,-8,-1472,-1.94118
0.95,-0.35248,-8,-1481,-2.13072
0.955,-0.35486,-8,-1491,-2.13072
0.96,-0.357,-8,-1500,-2.13072
0.965,-0.35938,-8,-1510,-2.13072
0.97,-0.36152,-8,-1519,-2.13072
0.975,-0.3639,-8,-1529,-2.13072
0.98,-0.36604,-8,-1538,-2.13072
0.985,-0.36842,-8,-1548,-2.13072
0.99,-0.3708,-8,-1558,-2.13072
0.995,-0.37295,-8,-1567,-2.13072
1,-0.37533,-8,-1577,-2.13072
1.005,-0.37747,-8,-1586,-2.13072
1.01,-0.37985,-8,-1596,-2.13072
1.015,-0.38223,-8,-1606,-2.13072
1.02,-0.38437,-8,-1615,-2.13072
1.025,-0.38675,-8,-1625,-2.13072
1.03,-0.38889,-8,-1634,-2.13072
1.035,-0.39127,-8,-1644,-2.13072
1.04,-0.39365,-8,-1654,-2.13072
1.045,-0.39579,-8,-1663,-2.13072
1.05,-0.39817,-8,-1673,-2.13072
1.055,-0.40055,-8,-1683,-1.9281
1.06,-0.40269,-8,-1692,-1.9281
1.065,-0.40507,-8,-1702,-1.9281
1.07,-0.40745,-8,-1712,-1.9281
1.075,-0.4096,-8,-1721,-1.9281
1.08,-0.41198,-8,-1731,-1.9281
1.085,-0.41412,-8,-1740,-1.9281
1.09,-0.4165,-8,-1750,-1.9281
1.095,-0.41888,-8,-1760,-1.9281
1.1,-0.42126,-8,-1770,-1.9281
1.105,-0.4234,-8,-1779,-1.9281
1.11,-0.42578,-8,-1789,-1.9281
1.115,-0.42792,-8,-1798,-1.9281
1.12,-0.4303,-8,-1808,-1.9281
1.125,-0.43268,-8,-1818,-1.9281
1.13,-0.43482,-8,-1827,-1.9281
1.135,-0.4372,-8,-1837,-1.9281
1.14,-0.43935,-8,-1846,-1.9281
1.145,-0.44173,-8,-1856,-1.9281
1.15,-0.44387,-8,-1865,-1.9281
1.155,-0.44625,-8,-1875,-1.9281
1.16,-0.44839,-8,-1884,-2.11111
1.165,-0.45077,-8,-1894,-2.11111
1.17,-0.45315,-8,-1904,-2.11111
1.175,-0.45529,-8,-1913,-2.11111
1.18,-0.45767,-8,-1923,-2.11111
1.185,-0.45981,-8,-1932,-2.11111
1.19,-0.46219,-8,-1942,-2.11111
1.195,-0.46457,-8,-1952,-2.11111
1.2,-0.46672,-8,-1961,-2.11111
1.205,-0.4691,-8,-1971,-2.11111
1.21,-0.47124,-8,-1980,-2.11111
1.215,-0.47362,-8,-1990,-2.11111
1.22,-0.476,-8,-2000,-2.11111
1.225,-0.47814,-8,-2009,-2.11111
1.23,-0.48052,-8,-2019,-2.11111
1.235,-0.48266,-8,-2028,-2.11111
1.24,-0.48504,-8,-2038,-2.11111
1.245,-0.48742,-8,-2048,-2.11111
1.25,-0.48956,-8,-2057,-2.11111
1.255,-0.49194,-8,-2067,-2.11111
1.26,-0.49432,-8,-2077,-2.11111
1.265,-0.49647,-8,-2086,-2.08497
1.27,-0.49885,-8,-2096,-2.08497
1.275,-0.50123,-8,-2106,-2.08497
1.28,-0.50337,-8,-2115,-2.08497
1.285,-0.50575,-8,-2125,-2.08497
1.29,-0.50789,-8,-2134,-2.08497
1.295,-0.51027,-8,-2144,-2.08497
1.3,-0.51265,-8,-2154,-2.08497
1.305,-0.51479,-8,-2163,-2.08497
1.31,-0.51717,-8,-2173,-2.08497
1.315,-0.51931,-8,-2182,-2.08497
1.32,-0.52169,-8,-2192,-2.08497
1.325,-0.52407,-8,-2202,-2.08497
1.33,-0.52622,-8,-2211,-2.08497
1.335,-0.5286,-8,-2221,-2.08497
1.34,-0.53074,-8,-2230,-2.08497
1.345,-0.53312,-8,-2240,-2.08497
1.35,-0.5355,-8,-2250,-2.08497
1.355,-0.53764,-8,-2259,-2.08497
1.36,-0.54002,-8,-2269,-2.08497
1.365,-0.54216,-8,-2278,-2.08497
1.37,-0.54454,-8,-2288,-2.08497
1.375,-0.54692,-8,-2298,-1.85948
1.38,-0.54906,-8,-2307,-1.85948
1.385,-0.55144,-8,-2317,-1.85948
1.39,-0.55382,-8,-2327,-1.85948
1.395,-0.55597,-8,-2336,-1.85948
1.4,-0.55835,-8,-2346,-1.85948
1.405,-0.56073,-8,-2356,-1.85948
1.41,-0.56287,-8,-2365,-1.85948
1.415,-0.56525,-8,-2375,-1.85948
1.42,-0.56763,-8,-2385,-1.85948
1.425,-0.56977,-8,-2394,-1.85948
1.43,-0.57215,-8,-2404,-1.85948
1.435,-0.57453,-8,-2414,-1.85948
1.44,-0.57667,-8,-2423,-1.85948
1.445,-0.57905,-8,-2433,-1.85948
1.45,-0.58119,-8,-2442,-1.85948
1.455,-0.58357,-8,-2452,-1.85948
1.46,-0.58595,-8,-2462,-1.85948
1.465,-0.5881,-8,-2471,-1.85948
1.47,-0.59048,-8,-2481,-1.85948
1.475,-0.59262,-8,-2490,-1.85948
1.48,-0.595,-8,-2500,-2.00654
1.485,-0.59738,-8,-2510,-2.00654
1.49,-0.59952,-8,-2519,-2.00654
1.495,-0.6019,-8,-2529,-2.00654
1.5,-0.60404,-8,-2538,-2.00654
1.505,-0.60642,-8,-2548,-2.00654
1.51,-0.60856,-8,-2557,-2.00654
1.515,-0.61094,-8,-2567,-2.00654
1.52,-0.61309,-8,-2576,-2.00654
1.525,-0.61547,-8,-2586,-2.00654
1.53,-0.61785,-8,-2596,-2.00654
1.535,-0.61999,-8,-2605,-2.00654
1.54,-0.62237,-8,-2615,-2.00654
1.545,-0.62475,-8,-2625,-2.00654
1.55,-0.62689,-8,-2634,-2.00654
1.555,-0.62927,-8,-2644,-2.00654
1.56,-0.63141,-8,-2653,-2.00654
1.565,-0.63379,-8,-2663,-2.00654
1.57,-0.63617,-8,-2673,-2.00654
1.575,-0.63831,-8,-2682,-2.00654
1.58,-0.64069,-8,-2692,-2.00654
1.585,-0.64284,-8,-2701,-1.95098
1.59,-0.64522,-8,-2711,-1.95098
1.595,-0.6476,-8,-2721,-1.95098
1.6,-0.64974,-8,-2730,-1.95098
1.605,-0.65212,-8,-2740,-1.95098
1.61,-0.65426,-8,-2749,-1.95098
1.615,-0.65664,-8,-2759,-1.95098
1.62,-0.65902,-8,-2769,-1.95098
1.625,-0.66116,-8,-2778,-1.95098
1.63,-0.66354,-8,-2788,-1.95098
1.635,-0.66568,-8,-2797,-1.95098
1.64,-0.66806,-8,-2807,-1.95098
1.645,-0.67021,-8,-2816,-1.95098
1.65,-0.67259,-8,-2826,-1.95098
1.655,-0.67497,-8,-2836,-1.95098
1.66,-0.67711,-8,-2845,-1.95098
1.665,-0.67949,-8,-2855,-1.95098
1.67,-0.68163,-8,-2864,-1.95098
1.675,-0.68401,-8,-2874,-1.95098
1.68,-0.68639,-8,-2884,-1.95098
1.685,-0.68853,-8,-2893,-1.95098
1.69,-0.69091,-8,-2903,-1.95098
1.695,-0.69305,-8,-2912,-2.17647
1.7,-0.69543,-8,-2922,-2.17647
1.705,-0.69781,-8,-2932,-2.17647
1.71,-0.69996,-8,-2941,-2.17647
1.715,-0.70234,-8,-2951,-2.17647
1.72,-0.70472,-8,-2961,-2.17647
1.725,-0.70686,-8,-2970,-2.17647
1.73,-0.70924,-8,-2980,-2.17647
1.735,-0.71138,-8,-2989,-2.17647
1.74,-0.71376,-8,-2999,-2.17647
1.745,-0.71614,-8,-3009,-2.17647
1.75,-0.71828,-8,-3018,-2.17647
1.755,-0.72066,-8,-3028,-2.17647
1.76,-0.72304,-8,-3038,-2.17647
1.765,-0.72518,-8,-3047,-2.17647
1.77,-0.72756,-8,-3057,-2.17647
1.775,-0.72971,-8,-3066,-2.17647
1.78,-0.73209,-8,-3076,-2.17647
1.785,-0.73447,-8,-3086,-2.17647
1.79,-0.73661,-8,-3095,-2.17647
1.795,-0.73899,-8,-3105,-2.17647
1.8,-0.74113,-8,-3114,-2.06209
1.805,-0.74351,-8,-3124,-2.06209
1.81,-0.74589,-8,-3134,-2.06209
1.815,-0.74803,-8,-3143,-2.06209
1.82,-0.75041,-8,-3153,-2.06209
1.825,-0.75255,-8,-3162,-2.06209
1.83,-0.75493,-8,-3172,-2.06209
1.835,-0.75731,-8,-3182,-2.06209
1.84,-0.75946,-8,-3191,-2.06209
1.845,-0.76184,-8,-3201,-2.06209
1.85,-0.76398,-8,-3210,-2.06209
1.855,-0.76636,-8,-3220,-2.06209
1.86,-0.7685,-8,-3229,-2.06209
1.865,-0.77088,-8,-3239,-2.06209
1.87,-0.77326,-8,-3249,-2.06209
1.875,-0.7754,-8,-3258,-2.06209
1.88,-0.77778,-8,-3268,-2.06209
1.885,-0.77992,-8,-3277,-2.06209
1.89,-0.7823,-8,-3287,-2.06209
1.895,-0.78468,-8,-3297,-2.06209
1.9,-0.78683,-8,-3306,-2.06209
1.905,-0.78921,-8,-3316,-1.94771
1.91,-0.79135,-8,-3325,-1.94771
1.915,-0.79373,-8,-3335,-1.94771
1.92,-0.79587,-8,-3344,-1.94771
1.925,-0.79825,-8,-3354,-1.94771
1.93,-0.80063,-8,-3364,-1.94771
1.935,-0.80277,-8,-3373,-1.94771
1.94,-0.80515,-8,-3383,-1.94771
1.945,-0.80729,-8,-3392,-1.94771
1.95,-0.80967,-8,-3402,-1.94771
1.955,-0.81205,-8,-3412,-1.94771
1.96,-0.8142,-8,-3421,-1.94771
1.965,-0.81658,-8,-3431,-1.94771
1.97,-0.81872,-8,-3440,-1.94771
1.975,-0.8211,-8,-3450,-1.94771
1.98,-0.82324,-8,-3459,-1.94771
1.985,-0.82562,-8,-3469,-1.94771
1.99,-0.82776,-8,-3478,-1.94771
1.995,-0.83014,-8,-3488,-1.94771
2,-0.83252,-8,-3498,-1.94771
2.005,-0.83466,-8,-3507,-1.94771
2.01,-0.83704,-8,-3517,-1.96078
2.015,-0.83919,-8,-3526,-1.96078
2.02,-0.84157,-8,-3536,-1.96078
2.025,-0.84371,-8,-3545,-1.96078
2.03,-0.84609,-8,-3555,-1.96078
2.035,-0.84847,-8,-3565,-1.96078
2.04,-0.85061,-8,-3574,-1.96078
2.045,-0.85299,-8,-3584,-1.96078
2.05,-0.85513,-8,-3593,-1.96078
2.055,-0.85751,-8,-3603,-1.96078
2.06,-0.85965,-8,-3612,-1.96078
2.065,-0.86203,-8,-3622,-1.96078
2.07,-0.86441,-8,-3632,-1.96078
2.075,-0.86656,-8,-3641,-1.96078
2.08,-0.86894,-8,-3651,-1.96078
2.085,-0.87108,-8,-3660,-1.96078
2.09,-0.87346,-8,-3670,-1.96078
2.095,-0.87584,-8,-3680,-1.96078
2.1,-0.87798,-8,-3689,-1.96078
2.105,-0.88036,-8,-3699,-1.96078
2.11,-0.8825,-8,-3708,-1.96078
2.115,-0.88488,-8,-3718,-1.96078
2.12,-0.88726,-8,-3728,-1.93791
2.125,-0.8894,-8,-3737,-1.93791
2.13,-0.89178,-8,-3747,-1.93791
2.135,-0.89393,-8,-3756,-1.93791
2.14,-0.89631,-8,-3766,-1.93791
2.145,-0.89845,-8,-3775,-1.93791
2.15,-0.90083,-8,-3785,-1.93791
2.155,-0.90297,-8,-3794,-1.93791
2.16,-0.90535,-8,-3804,-1.93791
2.165,-0.90773,-8,-3814,-1.93791
2.17,-0.90987,-8,-3823,-1.93791
2.175,-0.91225,-8,-3833,-1.93791
2.18,-0.91439,-8,-3842,-1.93791
2.185,-0.91677,-8,-3852,-1.93791
2.19,-0.91892,-8,-3861,-1.93791
2.195,-0.9213,-8,-3871,-1.93791
2.2,-0.92344,-8,-3880,-1.93791
2.205,-0.92582,-8,-3890,-1.93791
2.21,-0.9282,-8,-3900,-1.93791
2.215,-0.93034,-8,-3909,-1.93791
2.22,-0.93272,-8,-3919,-1.93791
2.225,-0.93486,-8,-3928,-2.14706
2.23,-0.93724,-8,-3938,-2.14706
2.235,-0.93962,-8,-3948,-2.14706
2.24,-0.94176,-8,-3957,-2.14706
2.245,-0.94414,-8,-3967,-2.14706
2.25,-0.94629,-8,-3976,-2.14706
2.255,-0.94867,-8,-3986,-2.14706
2.26,-0.95081,-8,-3995,-2.14706
2.265,-0.95319,-8,-4005,-2.14706
2.27,-0.95533,-8,-4014,-2.14706
2.275,-0.95771,-8,-4024,-2.14706
2.28,-0.95985,-8,-4033,-2.14706
2.285,-0.96223,-8,-4043,-2.14706
2.29,-0.96437,-8,-4052,-2.14706
2.295,-0.96675,-8,-4062,-2.14706
2.3,-0.9689,-8,-4071,-2.14706
2.305,-0.97128,-8,-4081,-2.14706
2.31,-0.97342,-8,-4090,-2.14706
2.315,-0.9758,-8,-4100,-2.14706
2.32,-0.97818,-8,-4110,-2.14706
2.325,-0.98032,-8,-4119,-2.14706
2.33,-0.9827,-8,-4129,-1.9281
2.335,-0.98484,-8,-4138,-1.9281
2.34,-0.98722,-8,-4148,-1.9281
2.345,-0.9896,-8,-4158,-1.9281
2.35,-0.99174,-8,-4167,-1.9281
2.355,-0.99412,-8,-4177,-1.9281
2.36,-0.99627,-8,-4186,-1.9281
2.365,-0.99865,-8,-4196,-1.9281
2.37,-1.0008,-8,-4205,-1.9281
