Time(s),h(m),V(V),Encoder,ADC
0,0,8,0,0.022376
0.005,0,8,0,0.022376
0.01,-0.000238,8,-1,0.022376
0.015,-0.000238,8,-1,0.022376
0.02,-0.000476,8,-2,0.022376
0.025,-0.000952,8,-4,0.022376
0.03,-0.00119,8,-5,0.022376
0.035,-0.001666,8,-7,0.022376
0.04,-0.00238,8,-10,0.022376
0.045,-0.003094,8,-13,0.022376
0.05,-0.003808,8,-16,0.022376
0.055,-0.004522,8,-19,0.022376
0.06,-0.005474,8,-23,0.022376
0.065,-0.006188,8,-26,0.022376
0.07,-0.00714,8,-30,0.022376
0.075,-0.008092,8,-34,0.022376
0.08,-0.009282,8,-39,0.022376
0.085,-0.010234,8,-43,0.022376
0.09,-0.011424,8,-48,0.022376
0.095,-0.012614,8,-53,0.022376
0.1,-0.013804,8,-58,3.39869
0.105,-0.014994,8,-63,3.39869
0.11,-0.016184,8,-68,3.39869
0.115,-0.017374,8,-73,3.39869
0.12,-0.018802,8,-79,3.39869
0.125,-0.019992,8,-84,3.39869
0.13,-0.021182,8,-89,3.39869
0.135,-0.02261,8,-95,3.39869
0.14,-0.024038,8,-101,3.39869
0.145,-0.025466,8,-107,3.39869
0.15,-0.026656,8,-112,3.39869
0.155,-0.028084,8,-118,3.39869
0.16,-0.029512,8,-124,3.39869
0.165,-0.03094,8,-130,3.39869
0.17,-0.032368,8,-136,3.39869
0.175,-0.033796,8,-142,3.39869
0.18,-0.035224,8,-148,3.39869
0.185,-0.036652,8,-154,3.39869
0.19,-0.038318,8,-161,3.39869
0.195,-0.039746,8,-167,3.39869
0.2,-0.041412,8,-174,3.39869
0.205,-0.04284,8,-180,2.68954
0.21,-0.044506,8,-187,2.68954
0.215,-0.046172,8,-194,2.68954
0.22,-0.0476,8,-200,2.68954
0.225,-0.049266,8,-207,2.68954
0.23,-0.05117,8,-215,2.68954
0.235,-0.052836,8,-222,2.68954
0.24,-0.054502,8,-229,2.68954
0.245,-0.056168,8,-236,2.68954
0.25,-0.058072,8,-244,2.68954
0.255,-0.059738,8,-251,2.68954
0.26,-0.061642,8,-259,2.68954
0.265,-0.063546,8,-267,2.68954
0.27,-0.06545,8,-275,2.68954
0.275,-0.067354,8,-283,2.68954
0.28,-0.069258,8,-291,2.68954
0.285,-0.071162,8,-299,2.68954
0.29,-0.073066,8,-307,2.68954
0.295,-0.07497,8,-315,2.68954
0.3,-0.076874,8,-323,2.68954
0.305,-0.079016,8,-332,2.68954
0.31,-0.08092,8,-340,2.17974
0.315,-0.083062,8,-349,2.17974
0.32,-0.084966,8,-357,2.17974
0.325,-0.08687,8,-365,2.17974
0.33,-0.089012,8,-374,2.17974
0.335,-0.090916,8,-382,2.17974
0.34,-0.093058,8,-391,2.17974
0.345,-0.094962,8,-399,2.17974
0.35,-0.097104,8,-408,2.17974
0.355,-0.099008,8,-416,2.17974
0.36,-0.10115,8,-425,2.17974
0.365,-0.10305,8,-433,2.17974
0.37,-0.1052,8,-442,2.17974
0.375,-0.10734,8,-451,2.17974
0.38,-0.10924,8,-459,2.17974
0.385,-0.11138,8,-468,2.17974
0.39,-0.11329,8,-476,2.17974
0.395,-0.11543,8,-485,2.17974
0.4,-0.11757,8,-494,2.17974
0.405,-0.11948,8,-502,2.17974
0.41,-0.12162,8,-511,2.17974
0.415,-0.12376,8,-520,1.9902
0.42,-0.1259,8,-529,1.9902
0.425,-0.12781,8,-537,1.9902
0.43,-0.12995,8,-546,1.9902
0.435,-0.13209,8,-555,1.9902
0.44,-0.13423,8,-564,1.9902
0.445,-0.13637,8,-573,1.9902
0.45,-0.13852,8,-582,1.9902
0.455,-0.14066,8,-591,1.9902
0.46,-0.1428,8,-600,1.9902
0.465,-0.14494,8,-609,1.9902
0.47,-0.14708,8,-618,1.9902
0.475,-0.14923,8,-627,1.9902
0.48,-0.15137,8,-636,1.9902
0.485,-0.15375,8,-646,1.9902
0.49,-0.15589,8,-655,1.9902
0.495,-0.15803,8,-664,1.9902
0.5,-0.16017,8,-673,1.9902
0.505,-0.16255,8,-683,1.9902
0.51,-0.1647,8,-692,1.9902
0.515,-0.16684,8,-701,1.9902
0.52,-0.16922,8,-711,1.9902
0.525,-0.17136,8,-720,1.92157
0.53,-0.1735,8,-729,1.92157
0.535,-0.17564,8,-738,1.92157
0.54,-0.17802,8,-748,1.92157
0.545,-0.18017,8,-757,1.92157
0.55,-0.18231,8,-766,1.92157
0.555,-0.18469,8,-776,1.92157
0.56,-0.18683,8,-785,1.92157
0.565,-0.18897,8,-794,1.92157
0.57,-0.19135,8,-804,1.92157
0.575,-0.19349,8,-813,1.92157
0.58,-0.19564,8,-822,1.92157
0.585,-0.19802,8,-832,1.92157
0.59,-0.20016,8,-841,1.92157
0.595,-0.2023,8,-850,1.92157
0.6,-0.20468,8,-860,1.92157
0.605,-0.20682,8,-869,1.92157
0.61,-0.2092,8,-879,1.92157
0.615,-0.21134,8,-888,1.92157
0.62,-0.21372,8,-898,1.92157
0.625,-0.21587,8,-907,1.92157
0.63,-0.21825,8,-917,1.90196
0.635,-0.22039,8,-926,1.90196
0.64,-0.22277,8,-936,1.90196
0.645,-0.22491,8,-945,1.90196
0.65,-0.22729,8,-955,1.90196
0.655,-0.22967,8,-965,1.90196
0.66,-0.23205,8,-975,1.90196
0.665,-0.23419,8,-984,1.90196
0.67,-0.23657,8,-994,1.90196
0.675,-0.23871,8,-1003,1.90196
0.68,-0.24109,8,-1013,1.90196
0.685,-0.24347,8,-1023,1.90196
0.69,-0.24585,8,-1033,1.90196
0.695,-0.248,8,-1042,1.90196
0.7,-0.25038,8,-1052,1.90196
0.705,-0.25276,8,-1062,1.90196
0.71,-0.2549,8,-1071,1.90196
0.715,-0.25728,8,-1081,1.90196
0.72,-0.25966,8,-1091,1.90196
0.725,-0.26204,8,-1101,1.90196
0.73,-0.26418,8,-1110,1.90196
0.735,-0.26656,8,-1120,1.76797
0.74,-0.26894,8,-1130,1.76797
0.745,-0.27108,8,-1139,1.76797
0.75,-0.27346,8,-1149,1.76797
0.755,-0.27584,8,-1159,1.76797
0.76,-0.27798,8,-1168,1.76797
0.765,-0.28036,8,-1178,1.76797
0.77,-0.28274,8,-1188,1.76797
0.775,-0.28489,8,-1197,1.76797
0.78,-0.28727,8,-1207,1.76797
0.785,-0.28965,8,-1217,1.76797
0.79,-0.29179,8,-1226,1.76797
0.795,-0.29417,8,-1236,1.76797
0.8,-0.29655,8,-1246,1.76797
0.805,-0.29869,8,-1255,1.76797
0.81,-0.30107,8,-1265,1.76797
0.815,-0.30345,8,-1275,1.76797
0.82,-0.30583,8,-1285,1.76797
0.825,-0.30797,8,-1294,1.76797
0.83,-0.31035,8,-1304,1.76797
0.835,-0.31273,8,-1314,1.76797
0.84,-0.31487,8,-1323,1.72549
0.845,-0.31725,8,-1333,1.72549
0.85,-0.31963,8,-1343,1.72549
0.855,-0.32201,8,-1353,1.72549
0.86,-0.32439,8,-1363,1.72549
0.865,-0.32654,8,-1372,1.72549
0.87,-0.32892,8,-1382,1.72549
0.875,-0.3313,8,-1392,1.72549
0.88,-0.33368,8,-1402,1.72549
0.885,-0.33606,8,-1412,1.72549
0.89,-0.3382,8,-1421,1.72549
0.895,-0.34058,8,-1431,1.72549
0.9,-0.34296,8,-1441,1.72549
0.905,-0.34534,8,-1451,1.72549
0.91,-0.34772,8,-1461,1.72549
0.915,-0.3501,8,-1471,1.72549
0.92,-0.35224,8,-1480,1.72549
0.925,-0.35462,8,-1490,1.72549
0.93,-0.357,8,-1500,1.72549
0.935,-0.35938,8,-1510,1.72549
0.94,-0.36152,8,-1519,1.72549
0.945,-0.3639,8,-1529,1.72549
0.95,-0.36628,8,-1539,1.7549
0.955,-0.36866,8,-1549,1.7549
0.96,-0.37104,8,-1559,1.7549
0.965,-0.37318,8,-1568,1.7549
0.97,-0.37556,8,-1578,1.7549
0.975,-0.37794,8,-1588,1.7549
0.98,-0.38032,8,-1598,1.7549
0.985,-0.3827,8,-1608,1.7549
0.99,-0.38508,8,-1618,1.7549
0.995,-0.38723,8,-1627,1.7549
1,-0.38961,8,-1637,1.7549
1.005,-0.39199,8,-1647,1.7549
1.01,-0.39436,8,-1657,1.7549
1.015,-0.39674,8,-1667,1.7549
1.02,-0.39912,8,-1677,1.7549
1.025,-0.4015,8,-1687,1.7549
1.03,-0.40388,8,-1697,1.7549
1.035,-0.40626,8,-1707,1.7549
1.04,-0.40864,8,-1717,1.7549
1.045,-0.41079,8,-1726,1.7549
1.05,-0.41317,8,-1736,1.7549
1.055,-0.41555,8,-1746,1.69608
1.06,-0.41793,8,-1756,1.69608
1.065,-0.42031,8,-1766,1.69608
1.07,-0.42269,8,-1776,1.69608
1.075,-0.42507,8,-1786,1.69608
1.08,-0.42721,8,-1795,1.69608
1.085,-0.42959,8,-1805,1.69608
1.09,-0.43197,8,-1815,1.69608
1.095,-0.43435,8,-1825,1.69608
1.1,-0.43673,8,-1835,1.69608
1.105,-0.43911,8,-1845,1.69608
1.11,-0.44149,8,-1855,1.69608
1.115,-0.44363,8,-1864,1.69608
1.12,-0.44601,8,-1874,1.69608
1.125,-0.44839,8,-1884,1.69608
1.13,-0.45077,8,-1894,1.69608
1.135,-0.45291,8,-1903,1.69608
1.14,-0.45529,8,-1913,1.69608
1.145,-0.45767,8,-1923,1.69608
1.15,-0.46005,8,-1933,1.69608
1.155,-0.46243,8,-1943,1.69608
1.16,-0.46481,8,-1953,1.70588
1.165,-0.46695,8,-1962,1.70588
1.17,-0.46933,8,-1972,1.70588
1.175,-0.47171,8,-1982,1.70588
1.18,-0.47409,8,-1992,1.70588
1.185,-0.47624,8,-2001,1.70588
1.19,-0.47862,8,-2011,1.70588
1.195,-0.481,8,-2021,1.70588
1.2,-0.48338,8,-2031,1.70588
1.205,-0.48576,8,-2041,1.70588
1.21,-0.48814,8,-2051,1.70588
1.215,-0.49052,8,-2061,1.70588
1.22,-0.4929,8,-2071,1.70588
1.225,-0.49504,8,-2080,1.70588
1.23,-0.49742,8,-2090,1.70588
1.235,-0.4998,8,-2100,1.70588
1.24,-0.50218,8,-2110,1.70588
1.245,-0.50456,8,-2120,1.70588
1.25,-0.50694,8,-2130,1.70588
1.255,-0.50908,8,-2139,1.70588
1.26,-0.51146,8,-2149,1.70588
1.265,-0.51384,8,-2159,1.70588
1.27,-0.51622,8,-2169,1.63725
1.275,-0.5186,8,-2179,1.63725
1.28,-0.52098,8,-2189,1.63725
1.285,-0.52336,8,-2199,1.63725
1.29,-0.5255,8,-2208,1.63725
1.295,-0.52788,8,-2218,1.63725
1.3,-0.53026,8,-2228,1.63725
1.305,-0.53264,8,-2238,1.63725
1.31,-0.53502,8,-2248,1.63725
1.315,-0.5374,8,-2258,1.63725
1.32,-0.53954,8,-2267,1.63725
1.325,-0.54192,8,-2277,1.63725
1.33,-0.5443,8,-2287,1.63725
1.335,-0.54668,8,-2297,1.63725
1.34,-0.54906,8,-2307,1.63725
1.345,-0.55144,8,-2317,1.63725
1.35,-0.55382,8,-2327,1.63725
1.355,-0.5562,8,-2337,1.63725
1.36,-0.55858,8,-2347,1.63725
1.365,-0.56096,8,-2357,1.63725
1.37,-0.56311,8,-2366,1.63725
1.375,-0.56549,8,-2376,1.78431
1.38,-0.56787,8,-2386,1.78431
1.385,-0.57025,8,-2396,1.78431
1.39,-0.57263,8,-2406,1.78431
1.395,-0.57501,8,-2416,1.78431
1.4,-0.57739,8,-2426,1.78431
1.405,-0.57977,8,-2436,1.78431
1.41,-0.58215,8,-2446,1.78431
1.415,-0.58429,8,-2455,1.78431
1.42,-0.58667,8,-2465,1.78431
1.425,-0.58905,8,-2475,1.78431
1.43,-0.59143,8,-2485,1.78431
1.435,-0.59381,8,-2495,1.78431
1.44,-0.59619,8,-2505,1.78431
1.445,-0.59857,8,-2515,1.78431
1.45,-0.60071,8,-2524,1.78431
1.455,-0.60309,8,-2534,1.78431
1.46,-0.60547,8,-2544,1.78431
1.465,-0.60785,8,-2554,1.78431
1.47,-0.60999,8,-2563,1.78431
1.475,-0.61237,8,-2573,1.78431
1.48,-0.61475,8,-2583,1.64052
1.485,-0.61713,8,-2593,1.64052
1.49,-0.61951,8,-2603,1.64052
1.495,-0.62189,8,-2613,1.64052
1.5,-0.62403,8,-2622,1.64052
1.505,-0.62641,8,-2632,1.64052
1.51,-0.62879,8,-2642,1.64052
1.515,-0.63117,8,-2652,1.64052
1.52,-0.63355,8,-2662,1.64052
1.525,-0.6357,8,-2671,1.64052
1.53,-0.63808,8,-2681,1.64052
1.535,-0.64046,8,-2691,1.64052
1.54,-0.64284,8,-2701,1.64052
1.545,-0.64522,8,-2711,1.64052
1.55,-0.6476,8,-2721,1.64052
1.555,-0.64998,8,-2731,1.64052
1.56,-0.65212,8,-2740,1.64052
1.565,-0.6545,8,-2750,1.64052
1.57,-0.65688,8,-2760,1.64052
1.575,-0.65926,8,-2770,1.64052
1.58,-0.66164,8,-2780,1.64052
1.585,-0.66378,8,-2789,1.69935
1.59,-0.66616,8,-2799,1.69935
1.595,-0.66854,8,-2809,1.69935
1.6,-0.67092,8,-2819,1.69935
1.605,-0.6733,8,-2829,1.69935
1.61,-0.67568,8,-2839,1.69935
1.615,-0.67782,8,-2848,1.69935
1.62,-0.6802,8,-2858,1.69935
1.625,-0.68258,8,-2868,1.69935
1.63,-0.68496,8,-2878,1.69935
1.635,-0.68734,8,-2888,1.69935
1.64,-0.68948,8,-2897,1.69935
1.645,-0.69186,8,-2907,1.69935
1.65,-0.69424,8,-2917,1.69935
1.655,-0.69662,8,-2927,1.69935
1.66,-0.699,8,-2937,1.69935
1.665,-0.70138,8,-2947,1.69935
1.67,-0.70376,8,-2957,1.69935
1.675,-0.70614,8,-2967,1.69935
1.68,-0.70852,8,-2977,1.69935
1.685,-0.71067,8,-2986,1.69935
1.69,-0.71305,8,-2996,1.69935
1.695,-0.71543,8,-3006,1.68301
1.7,-0.71781,8,-3016,1.68301
1.705,-0.72019,8,-3026,1.68301
1.71,-0.72233,8,-3035,1.68301
1.715,-0.72471,8,-3045,1.68301
1.72,-0.72709,8,-3055,1.68301
1.725,-0.72947,8,-3065,1.68301
1.73,-0.73185,8,-3075,1.68301
1.735,-0.73423,8,-3085,1.68301
1.74,-0.73661,8,-3095,1.68301
1.745,-0.73875,8,-3104,1.68301
1.75,-0.74113,8,-3114,1.68301
1.755,-0.74351,8,-3124,1.68301
1.76,-0.74589,8,-3134,1.68301
1.765,-0.74827,8,-3144,1.68301
1.77,-0.75065,8,-3154,1.68301
1.775,-0.75279,8,-3163,1.68301
1.78,-0.75517,8,-3173,1.68301
1.785,-0.75755,8,-3183,1.68301
1.79,-0.75993,8,-3193,1.68301
1.795,-0.76231,8,-3203,1.68301
1.8,-0.76445,8,-3212,1.75817
1.805,-0.76683,8,-3222,1.75817
1.81,-0.76921,8,-3232,1.75817
1.815,-0.77159,8,-3242,1.75817
1.82,-0.77374,8,-3251,1.75817
1.825,-0.77612,8,-3261,1.75817
1.83,-0.7785,8,-3271,1.75817
1.835,-0.78088,8,-3281,1.75817
1.84,-0.78326,8,-3291,1.75817
1.845,-0.78564,8,-3301,1.75817
1.85,-0.78778,8,-3310,1.75817
1.855,-0.79016,8,-3320,1.75817
1.86,-0.79254,8,-3330,1.75817
1.865,-0.79492,8,-3340,1.75817
1.87,-0.7973,8,-3350,1.75817
1.875,-0.79944,8,-3359,1.75817
1.88,-0.80182,8,-3369,1.75817
1.885,-0.8042,8,-3379,1.75817
1.89,-0.80658,8,-3389,1.75817
1.895,-0.80896,8,-3399,1.75817
1.9,-0.81134,8,-3409,1.75817
1.905,-0.81348,8,-3418,1.73203
1.91,-0.81586,8,-3428,1.73203
1.915,-0.81824,8,-3438,1.73203
1.92,-0.82062,8,-3448,1.73203
1.925,-0.823,8,-3458,1.73203
1.93,-0.82514,8,-3467,1.73203
1.935,-0.82752,8,-3477,1.73203
1.94,-0.8299,8,-3487,1.73203
1.945,-0.83228,8,-3497,1.73203
1.95,-0.83466,8,-3507,1.73203
1.955,-0.83704,8,-3517,1.73203
1.96,-0.83942,8,-3527,1.73203
1.965,-0.84157,8,-3536,1.73203
1.97,-0.84395,8,-3546,1.73203
1.975,-0.84633,8,-3556,1.73203
1.98,-0.84871,8,-3566,1.73203
1.985,-0.85109,8,-3576,1.73203
1.99,-0.85347,8,-3586,1.73203
1.995,-0.85561,8,-3595,1.73203
2,-0.85799,8,-3605,1.73203
2.005,-0.86037,8,-3615,1.73203
2.01,-0.86275,8,-3625,1.73203
2.015,-0.86513,8,-3635,1.76144
2.02,-0.86751,8,-3645,1.76144
2.025,-0.86989,8,-3655,1.76144
2.03,-0.87227,8,-3665,1.76144
2.035,-0.87465,8,-3675,1.76144
2.04,-0.87679,8,-3684,1.76144
2.045,-0.87917,8,-3694,1.76144
2.05,-0.88155,8,-3704,1.76144
2.055,-0.88393,8,-3714,1.76144
2.06,-0.88631,8,-3724,1.76144
2.065,-0.88869,8,-3734,1.76144
2.07,-0.89107,8,-3744,1.76144
2.075,-0.89321,8,-3753,1.76144
2.08,-0.89559,8,-3763,1.76144
2.085,-0.89797,8,-3773,1.76144
2.09,-0.90035,8,-3783,1.76144
2.095,-0.90273,8,-3793,1.76144
2.1,-0.90511,8,-3803,1.76144
2.105,-0.90749,8,-3813,1.76144
2.11,-0.90963,8,-3822,1.76144
2.115,-0.91201,8,-3832,1.76144
2.12,-0.91439,8,-3842,1.67647
2.125,-0.91677,8,-3852,1.67647
2.13,-0.91915,8,-3862,1.67647
2.135,-0.9213,8,-3871,1.67647
2.14,-0.92368,8,-3881,1.67647
2.145,-0.92606,8,-3891,1.67647
2.15,-0.92844,8,-3901,1.67647
2.155,-0.93082,8,-3911,1.67647
2.16,-0.9332,8,-3921,1.67647
2.165,-0.93534,8,-3930,1.67647
2.17,-0.93772,8,-3940,1.67647
2.175,-0.9401,8,-3950,1.67647
2.18,-0.94248,8,-3960,1.67647
2.185,-0.94486,8,-3970,1.67647
2.19,-0.947,8,-3979,1.67647
2.195,-0.94938,8,-3989,1.67647
2.2,-0.95176,8,-3999,1.67647
2.205,-0.95414,8,-4009,1.67647
2.21,-0.95652,8,-4019,1.67647
2.215,-0.9589,8,-4029,1.67647
2.22,-0.96128,8,-4039,1.67647
2.225,-0.96342,8,-4048,1.61111
2.23,-0.9658,8,-4058,1.61111
2.235,-0.96818,8,-4068,1.61111
2.24,-0.97056,8,-4078,1.61111
2.245,-0.97294,8,-4088,1.61111
2.25,-0.97508,8,-4097,1.61111
2.255,-0.97746,8,-4107,1.61111
2.26,-0.97984,8,-4117,1.61111
2.265,-0.98222,8,-4127,1.61111
2.27,-0.9846,8,-4137,1.61111
2.275,-0.98698,8,-4147,1.61111
2.28,-0.98936,8,-4157,1.61111
2.285,-0.99151,8,-4166,1.61111
2.29,-0.99389,8,-4176,1.61111
2.295,-0.99627,8,-4186,1.61111
2.3,-0.99865,8,-4196,1.61111
2.305,-1.001,8,-4206,1.61111
