Time(s),h(m),V(V),Encoder,ADC
0,0,8,0,0.0196078
0.005,0,8,0,0.0196078
0.01,-0.000238,8,-1,0.0196078
0.015,-0.000476,8,-2,0.0196078
0.02,-0.000952,8,-4,0.0196078
0.025,-0.00119,8,-5,0.0196078
0.03,-0.001904,8,-8,0.0196078
0.035,-0.00238,8,-10,0.0196078
0.04,-0.003094,8,-13,0.0196078
0.045,-0.003808,8,-16,0.0196078
0.05,-0.004522,8,-19,0.0196078
0.055,-0.005474,8,-23,0.0196078
0.06,-0.006188,8,-26,0.0196078
0.065,-0.00714,8,-30,0.0196078
0.07,-0.00833,8,-35,0.0196078
0.075,-0.009282,8,-39,0.0196078
0.08,-0.010472,8,-44,0.0196078
0.085,-0.011662,8,-49,0.0196078
0.09,-0.012852,8,-54,0.0196078
0.095,-0.01428,8,-60,0.0196078
0.1,-0.01547,8,-65,3.34967
0.105,-0.016898,8,-71,3.34967
0.11,-0.018326,8,-77,3.34967
0.115,-0.019992,8,-84,3.34967
0.12,-0.02142,8,-90,3.34967
0.125,-0.023086,8,-97,3.34967
0.13,-0.024514,8,-103,3.34967
0.135,-0.02618,8,-110,3.34967
0.14,-0.028084,8,-118,3.34967
0.145,-0.02975,8,-125,3.34967
0.15,-0.031416,8,-132,3.34967
0.155,-0.03332,8,-140,3.34967
0.16,-0.035224,8,-148,3.34967
0.165,-0.03689,8,-155,3.34967
0.17,-0.038794,8,-163,3.34967
0.175,-0.040936,8,-172,3.34967
0.18,-0.04284,8,-180,3.34967
0.185,-0.044744,8,-188,3.34967
0.19,-0.046886,8,-197,3.34967
0.195,-0.04879,8,-205,3.34967
0.2,-0.050932,8,-214,3.34967
0.205,-0.053074,8,-223,3.34967
0.21,-0.055216,8,-232,2.15033
0.215,-0.057358,8,-241,2.15033
0.22,-0.059738,8,-251,2.15033
0.225,-0.06188,8,-260,2.15033
0.23,-0.064022,8,-269,2.15033
0.235,-0.066402,8,-279,2.15033
0.24,-0.068544,8,-288,2.15033
0.245,-0.070924,8,-298,2.15033
0.25,-0.073304,8,-308,2.15033
0.255,-0.075684,8,-318,2.15033
0.26,-0.077826,8,-327,2.15033
0.265,-0.080206,8,-337,2.15033
0.27,-0.082586,8,-347,2.15033
0.275,-0.085204,8,-358,2.15033
0.28,-0.087584,8,-368,2.15033
0.285,-0.089964,8,-378,2.15033
0.29,-0.092582,8,-389,2.15033
0.295,-0.094962,8,-399,2.15033
0.3,-0.09758,8,-410,2.15033
0.305,-0.09996,8,-420,2.15033
0.31,-0.10258,8,-431,2.15033
0.315,-0.1052,8,-442,1.61111
0.32,-0.10758,8,-452,1.61111
0.325,-0.11019,8,-463,1.61111
0.33,-0.11281,8,-474,1.61111
0.335,-0.11543,8,-485,1.61111
0.34,-0.11805,8,-496,1.61111
0.345,-0.12067,8,-507,1.61111
0.35,-0.12328,8,-518,1.61111
0.355,-0.1259,8,-529,1.61111
0.36,-0.12852,8,-540,1.61111
0.365,-0.13138,8,-552,1.61111
0.37,-0.13399,8,-563,1.61111
0.375,-0.13661,8,-574,1.61111
0.38,-0.13947,8,-586,1.61111
0.385,-0.14209,8,-597,1.61111
0.39,-0.14494,8,-609,1.61111
0.395,-0.14756,8,-620,1.61111
0.4,-0.15018,8,-631,1.61111
0.405,-0.15303,8,-643,1.61111
0.41,-0.15589,8,-655,1.61111
0.415,-0.15851,8,-666,1.61111
0.42,-0.16136,8,-678,1.22876
0.425,-0.16422,8,-690,1.22876
0.43,-0.16684,8,-701,1.22876
0.435,-0.16969,8,-713,1.22876
0.44,-0.17255,8,-725,1.22876
0.445,-0.17541,8,-737,1.22876
0.45,-0.17826,8,-749,1.22876
0.455,-0.18112,8,-761,1.22876
0.46,-0.18397,8,-773,1.22876
0.465,-0.18683,8,-785,1.22876
0.47,-0.18969,8,-797,1.22876
0.475,-0.19254,8,-809,1.22876
0.48,-0.1954,8,-821,1.22876
0.485,-0.19825,8,-833,1.22876
0.49,-0.20111,8,-845,1.22876
0.495,-0.20397,8,-857,1.22876
0.5,-0.20682,8,-869,1.22876
0.505,-0.20992,8,-882,1.22876
0.51,-0.21277,8,-894,1.22876
0.515,-0.21563,8,-906,1.22876
0.52,-0.21872,8,-919,1.22876
0.525,-0.22158,8,-931,1.22876
0.53,-0.22443,8,-943,1.16667
0.535,-0.22729,8,-955,1.16667
0.54,-0.23038,8,-968,1.16667
0.545,-0.23324,8,-980,1.16667
0.55,-0.23633,8,-993,1.16667
0.555,-0.23919,8,-1005,1.16667
0.56,-0.24228,8,-1018,1.16667
0.565,-0.24514,8,-1030,1.16667
0.57,-0.24823,8,-1043,1.16667
0.575,-0.25109,8,-1055,1.16667
0.58,-0.25418,8,-1068,1.16667
0.585,-0.25728,8,-1081,1.16667
0.59,-0.26013,8,-1093,1.16667
0.595,-0.26323,8,-1106,1.16667
0.6,-0.26608,8,-1118,1.16667
0.605,-0.26918,8,-1131,1.16667
0.61,-0.27227,8,-1144,1.16667
0.615,-0.27513,8,-1156,1.16667
0.62,-0.27822,8,-1169,1.16667
0.625,-0.28108,8,-1181,1.16667
0.63,-0.28417,8,-1194,1.16667
0.635,-0.28727,8,-1207,1.02614
0.64,-0.29036,8,-1220,1.02614
0.645,-0.29322,8,-1232,1.02614
0.65,-0.29631,8,-1245,1.02614
0.655,-0.2994,8,-1258,1.02614
0.66,-0.3025,8,-1271,1.02614
0.665,-0.30535,8,-1283,1.02614
0.67,-0.30845,8,-1296,1.02614
0.675,-0.31154,8,-1309,1.02614
0.68,-0.31464,8,-1322,1.02614
0.685,-0.31773,8,-1335,1.02614
0.69,-0.32082,8,-1348,1.02614
0.695,-0.32368,8,-1360,1.02614
0.7,-0.32677,8,-1373,1.02614
0.705,-0.32987,8,-1386,1.02614
0.71,-0.33296,8,-1399,1.02614
0.715,-0.33606,8,-1412,1.02614
0.72,-0.33915,8,-1425,1.02614
0.725,-0.34224,8,-1438,1.02614
0.73,-0.34534,8,-1451,1.02614
0.735,-0.34819,8,-1463,1.02614
0.74,-0.35129,8,-1476,0.970588
0.745,-0.35438,8,-1489,0.970588
0.75,-0.35748,8,-1502,0.970588
0.755,-0.36057,8,-1515,0.970588
0.76,-0.36366,8,-1528,0.970588
0.765,-0.36676,8,-1541,0.970588
0.77,-0.36985,8,-1554,0.970588
0.775,-0.37295,8,-1567,0.970588
0.78,-0.37604,8,-1580,0.970588
0.785,-0.37913,8,-1593,0.970588
0.79,-0.38223,8,-1606,0.970588
0.795,-0.38532,8,-1619,0.970588
0.8,-0.38842,8,-1632,0.970588
0.805,-0.39151,8,-1645,0.970588
0.81,-0.3946,8,-1658,0.970588
0.815,-0.3977,8,-1671,0.970588
0.82,-0.40079,8,-1684,0.970588
0.825,-0.40388,8,-1697,0.970588
0.83,-0.40698,8,-1710,0.970588
0.835,-0.41007,8,-1723,0.970588
0.84,-0.4134,8,-1737,0.970588
0.845,-0.4165,8,-1750,0.885621
0.85,-0.41959,8,-1763,0.885621
0.855,-0.42269,8,-1776,0.885621
0.86,-0.42578,8,-1789,0.885621
0.865,-0.42887,8,-1802,0.885621
0.87,-0.43197,8,-1815,0.885621
0.875,-0.43506,8,-1828,0.885621
0.88,-0.43816,8,-1841,0.885621
0.885,-0.44125,8,-1854,0.885621
0.89,-0.44434,8,-1867,0.885621
0.895,-0.44768,8,-1881,0.885621
0.9,-0.45077,8,-1894,0.885621
0.905,-0.45386,8,-1907,0.885621
0.91,-0.45696,8,-1920,0.885621
0.915,-0.46005,8,-1933,0.885621
0.92,-0.46315,8,-1946,0.885621
0.925,-0.46624,8,-1959,0.885621
0.93,-0.46957,8,-1973,0.885621
0.935,-0.47267,8,-1986,0.885621
0.94,-0.47576,8,-1999,0.885621
0.945,-0.47885,8,-2012,0.885621
0.95,-0.48195,8,-2025,0.885621
0.955,-0.48504,8,-2038,0.928105
0.96,-0.48814,8,-2051,0.928105
0.965,-0.49147,8,-2065,0.928105
0.97,-0.49456,8,-2078,0.928105
0.975,-0.49766,8,-2091,0.928105
0.98,-0.50075,8,-2104,0.928105
0.985,-0.50384,8,-2117,0.928105
0.99,-0.50718,8,-2131,0.928105
0.995,-0.51027,8,-2144,0.928105
1,-0.51336,8,-2157,0.928105
1.005,-0.51646,8,-2170,0.928105
1.01,-0.51955,8,-2183,0.928105
1.015,-0.52288,8,-2197,0.928105
1.02,-0.52598,8,-2210,0.928105
1.025,-0.52907,8,-2223,0.928105
1.03,-0.53217,8,-2236,0.928105
1.035,-0.53526,8,-2249,0.928105
1.04,-0.53859,8,-2263,0.928105
1.045,-0.54169,8,-2276,0.928105
1.05,-0.54478,8,-2289,0.928105
1.055,-0.54811,8,-2303,0.928105
1.06,-0.55121,8,-2316,0.872549
1.065,-0.5543,8,-2329,0.872549
1.07,-0.55739,8,-2342,0.872549
1.075,-0.56049,8,-2355,0.872549
1.08,-0.56382,8,-2369,0.872549
1.085,-0.56691,8,-2382,0.872549
1.09,-0.57001,8,-2395,0.872549
1.095,-0.57334,8,-2409,0.872549
1.1,-0.57643,8,-2422,0.872549
1.105,-0.57953,8,-2435,0.872549
1.11,-0.58262,8,-2448,0.872549
1.115,-0.58595,8,-2462,0.872549
1.12,-0.58905,8,-2475,0.872549
1.125,-0.59214,8,-2488,0.872549
1.13,-0.59524,8,-2501,0.872549
1.135,-0.59857,8,-2515,0.872549
1.14,-0.60166,8,-2528,0.872549
1.145,-0.60476,8,-2541,0.872549
1.15,-0.60809,8,-2555,0.872549
1.155,-0.61118,8,-2568,0.872549
1.16,-0.61428,8,-2581,0.872549
1.165,-0.61737,8,-2594,0.875817
1.17,-0.6207,8,-2608,0.875817
1.175,-0.6238,8,-2621,0.875817
1.18,-0.62689,8,-2634,0.875817
1.185,-0.63022,8,-2648,0.875817
1.19,-0.63332,8,-2661,0.875817
1.195,-0.63641,8,-2674,0.875817
1.2,-0.6395,8,-2687,0.875817
1.205,-0.64284,8,-2701,0.875817
1.21,-0.64593,8,-2714,0.875817
1.215,-0.64902,8,-2727,0.875817
1.22,-0.65236,8,-2741,0.875817
1.225,-0.65545,8,-2754,0.875817
1.23,-0.65854,8,-2767,0.875817
1.235,-0.66188,8,-2781,0.875817
1.24,-0.66497,8,-2794,0.875817
1.245,-0.66806,8,-2807,0.875817
1.25,-0.6714,8,-2821,0.875817
1.255,-0.67449,8,-2834,0.875817
1.26,-0.67758,8,-2847,0.875817
1.265,-0.68092,8,-2861,0.875817
1.27,-0.68401,8,-2874,0.875817
1.275,-0.6871,8,-2887,0.875817
1.28,-0.69044,8,-2901,0.875817
1.285,-0.69353,8,-2914,0.875817
1.29,-0.69662,8,-2927,0.875817
1.295,-0.69996,8,-2941,0.875817
1.3,-0.70305,8,-2954,0.875817
1.305,-0.70614,8,-2967,0.875817
1.31,-0.70948,8,-2981,0.875817
1.315,-0.71257,8,-2994,0.875817
1.32,-0.71566,8,-3007,0.875817
1.325,-0.719,8,-3021,0.875817
1.33,-0.72209,8,-3034,0.875817
1.335,-0.72542,8,-3048,0.875817
1.34,-0.72852,8,-3061,0.875817
1.345,-0.73161,8,-3074,0.875817
1.35,-0.73494,8,-3088,0.875817
1.355,-0.73804,8,-3101,0.875817
1.36,-0.74113,8,-3114,0.875817
1.365,-0.74446,8,-3128,0.875817
1.37,-0.74756,8,-3141,0.875817
1.375,-0.75065,8,-3154,0.875817
1.38,-0.75398,8,-3168,0.852941
1.385,-0.75708,8,-3181,0.852941
1.39,-0.76017,8,-3194,0.852941
1.395,-0.7635,8,-3208,0.852941
1.4,-0.7666,8,-3221,0.852941
1.405,-0.76993,8,-3235,0.852941
1.41,-0.77302,8,-3248,0.852941
1.415,-0.77612,8,-3261,0.852941
1.42,-0.77945,8,-3275,0.852941
1.425,-0.78254,8,-3288,0.852941
1.43,-0.78564,8,-3301,0.852941
1.435,-0.78897,8,-3315,0.852941
1.44,-0.79206,8,-3328,0.852941
1.445,-0.79516,8,-3341,0.852941
1.45,-0.79849,8,-3355,0.852941
1.455,-0.80158,8,-3368,0.852941
1.46,-0.80468,8,-3381,0.852941
1.465,-0.80801,8,-3395,0.852941
1.47,-0.8111,8,-3408,0.852941
1.475,-0.81443,8,-3422,0.852941
1.48,-0.81753,8,-3435,0.852941
1.485,-0.82062,8,-3448,0.885621
1.49,-0.82395,8,-3462,0.885621
1.495,-0.82705,8,-3475,0.885621
1.5,-0.83038,8,-3489,0.885621
1.505,-0.83347,8,-3502,0.885621
1.51,-0.83657,8,-3515,0.885621
1.515,-0.8399,8,-3529,0.885621
1.52,-0.84299,8,-3542,0.885621
1.525,-0.84609,8,-3555,0.885621
1.53,-0.84942,8,-3569,0.885621
1.535,-0.85251,8,-3582,0.885621
1.54,-0.85585,8,-3596,0.885621
1.545,-0.85894,8,-3609,0.885621
1.55,-0.86227,8,-3623,0.885621
1.555,-0.86537,8,-3636,0.885621
1.56,-0.86846,8,-3649,0.885621
1.565,-0.87179,8,-3663,0.885621
1.57,-0.87489,8,-3676,0.885621
1.575,-0.87798,8,-3689,0.885621
1.58,-0.88131,8,-3703,0.885621
1.585,-0.88441,8,-3716,0.885621
1.59,-0.88774,8,-3730,0.843137
1.595,-0.89083,8,-3743,0.843137
1.6,-0.89416,8,-3757,0.843137
1.605,-0.89726,8,-3770,0.843137
1.61,-0.90035,8,-3783,0.843137
1.615,-0.90368,8,-3797,0.843137
1.62,-0.90678,8,-3810,0.843137
1.625,-0.90987,8,-3823,0.843137
1.63,-0.9132,8,-3837,0.843137
1.635,-0.9163,8,-3850,0.843137
1.64,-0.91963,8,-3864,0.843137
1.645,-0.92272,8,-3877,0.843137
1.65,-0.92606,8,-3891,0.843137
1.655,-0.92915,8,-3904,0.843137
1.66,-0.93224,8,-3917,0.843137
1.665,-0.93558,8,-3931,0.843137
1.67,-0.93867,8,-3944,0.843137
1.675,-0.94176,8,-3957,0.843137
1.68,-0.9451,8,-3971,0.843137
1.685,-0.94819,8,-3984,0.843137
1.69,-0.95152,8,-3998,0.843137
1.695,-0.95462,8,-4011,0.843137
1.7,-0.95771,8,-4024,0.852941
1.705,-0.96104,8,-4038,0.852941
1.71,-0.96414,8,-4051,0.852941
1.715,-0.96747,8,-4065,0.852941
1.72,-0.97056,8,-4078,0.852941
1.725,-0.97366,8,-4091,0.852941
1.73,-0.97699,8,-4105,0.852941
1.735,-0.98008,8,-4118,0.852941
1.74,-0.98341,8,-4132,0.852941
1.745,-0.98651,8,-4145,0.852941
1.75,-0.98984,8,-4159,0.852941
1.755,-0.99293,8,-4172,0.852941
1.76,-0.99603,8,-4185,0.852941
1.765,-0.99936,8,-4199,0.852941
1.77,-1.0025,8,-4212,0.852941
