Time(s),h(m),V(V),Encoder,ADC
0,0,-4.5,0,1
0.005,0,-4.5,0,-216
0.01,0,-4.5,0,-216
0.015,-0.00023799,-4.5,-1,-216
0.02,-0.00047598,-4.5,-2,-216
0.025,-0.00071398,-4.5,-3,-224
0.03,-0.00095197,-4.5,-4,-224
0.035,-0.001428,-4.5,-6,-224
0.04,-0.0016659,-4.5,-7,-207
0.045,-0.0021419,-4.5,-9,-207
0.05,-0.0026179,-4.5,-11,-207
0.055,-0.0030939,-4.5,-13,-207
0.06,-0.0035699,-4.5,-15,-156
0.065,-0.0042839,-4.5,-18,-156
0.07,-0.0047598,-4.5,-20,-156
0.075,-0.0054738,-4.5,-23,-193
0.08,-0.0061878,-4.5,-26,-193
0.085,-0.0066638,-4.5,-28,-193
0.09,-0.0076158,-4.5,-32,-193
0.095,-0.0080917,-4.5,-34,-176
0.1,-0.0090437,-4.5,-38,-176
0.105,-0.0097577,-4.5,-41,-176
0.11,-0.010472,-4.5,-44,-176
0.115,-0.011424,-4.5,-48,-184
0.12,-0.012138,-4.5,-51,-184
0.125,-0.01309,-4.5,-55,-184
0.13,-0.014042,-4.5,-59,-192
0.135,-0.014994,-4.5,-63,-192
0.14,-0.015945,-4.5,-67,-192
0.145,-0.016897,-4.5,-71,-192
0.15,-0.017849,-4.5,-75,-167
0.155,-0.018801,-4.5,-79,-167
0.16,-0.019991,-4.5,-84,-167
0.165,-0.020943,-4.5,-88,-176
0.17,-0.022133,-4.5,-93,-176
0.175,-0.023085,-4.5,-97,-176
0.18,-0.024275,-4.5,-102,-176
0.185,-0.025465,-4.5,-107,-159
0.19,-0.026655,-4.5,-112,-159
0.195,-0.027845,-4.5,-117,-159
0.2,-0.029035,-4.5,-122,-152
0.205,-0.030463,-4.5,-128,-152
0.21,-0.031653,-4.5,-133,-152
0.215,-0.033081,-4.5,-139,-152
0.22,-0.034271,-4.5,-144,-156
0.225,-0.035699,-4.5,-150,-156
0.23,-0.037127,-4.5,-156,-156
0.235,-0.038317,-4.5,-161,-127
0.24,-0.039745,-4.5,-167,-127
0.245,-0.041173,-4.5,-173,-127
0.25,-0.042601,-4.5,-179,-127
0.255,-0.044029,-4.5,-185,-127
0.26,-0.045457,-4.5,-191,-127
0.265,-0.046885,-4.5,-197,-127
0.27,-0.048312,-4.5,-203,-143
0.275,-0.04974,-4.5,-209,-143
0.28,-0.051168,-4.5,-215,-143
0.285,-0.052834,-4.5,-222,-143
0.29,-0.054262,-4.5,-228,-142
0.295,-0.05569,-4.5,-234,-142
0.3,-0.057356,-4.5,-241,-142
0.305,-0.058784,-4.5,-247,-142
0.31,-0.06045,-4.5,-254,-127
0.315,-0.061878,-4.5,-260,-127
0.32,-0.063544,-4.5,-267,-127
0.325,-0.06521,-4.5,-274,-124
0.33,-0.066638,-4.5,-280,-124
0.335,-0.068304,-4.5,-287,-124
0.34,-0.06997,-4.5,-294,-124
0.345,-0.071636,-4.5,-301,-127
0.35,-0.073302,-4.5,-308,-127
0.355,-0.074968,-4.5,-315,-127
0.36,-0.076634,-4.5,-322,-126
0.365,-0.0783,-4.5,-329,-126
0.37,-0.079965,-4.5,-336,-126
0.375,-0.081631,-4.5,-343,-126
0.38,-0.083297,-4.5,-350,-120
0.385,-0.085201,-4.5,-358,-120
0.39,-0.086867,-4.5,-365,-120
0.395,-0.088533,-4.5,-372,-120
0.4,-0.090437,-4.5,-380,-120
0.405,-0.092103,-4.5,-387,-120
0.41,-0.093769,-4.5,-394,-120
0.415,-0.095673,-4.5,-402,-113
0.42,-0.097339,-4.5,-409,-113
0.425,-0.099005,-4.5,-416,-113
0.43,-0.10091,-4.5,-424,-126
0.435,-0.10257,-4.5,-431,-126
0.44,-0.10448,-4.5,-439,-126
0.445,-0.10614,-4.5,-446,-126
0.45,-0.10805,-4.5,-454,-124
0.455,-0.10971,-4.5,-461,-124
0.46,-0.11162,-4.5,-469,-124
0.465,-0.11352,-4.5,-477,-97
0.47,-0.11519,-4.5,-484,-97
0.475,-0.11709,-4.5,-492,-97
0.48,-0.119,-4.5,-500,-97
0.485,-0.1209,-4.5,-508,-124
0.49,-0.12257,-4.5,-515,-124
0.495,-0.12447,-4.5,-523,-124
0.5,-0.12637,-4.5,-531,-124
0.505,-0.12828,-4.5,-539,-99
0.51,-0.12994,-4.5,-546,-99
0.515,-0.13185,-4.5,-554,-99
0.52,-0.13375,-4.5,-562,-120
0.525,-0.13566,-4.5,-570,-120
0.53,-0.13756,-4.5,-578,-120
0.535,-0.13946,-4.5,-586,-120
0.54,-0.14137,-4.5,-594,-112
0.545,-0.14327,-4.5,-602,-112
0.55,-0.14518,-4.5,-610,-112
0.555,-0.14708,-4.5,-618,-88
0.56,-0.14898,-4.5,-626,-88
0.565,-0.15089,-4.5,-634,-88
0.57,-0.15279,-4.5,-642,-88
0.575,-0.1547,-4.5,-650,-112
0.58,-0.1566,-4.5,-658,-112
0.585,-0.1585,-4.5,-666,-112
0.59,-0.16041,-4.5,-674,-120
0.595,-0.16231,-4.5,-682,-120
0.6,-0.16445,-4.5,-691,-120
0.605,-0.16636,-4.5,-699,-120
0.61,-0.16826,-4.5,-707,-120
0.615,-0.17016,-4.5,-715,-120
0.62,-0.17207,-4.5,-723,-120
0.625,-0.17421,-4.5,-732,-112
0.63,-0.17611,-4.5,-740,-112
0.635,-0.17802,-4.5,-748,-112
0.64,-0.17992,-4.5,-756,-112
0.645,-0.18206,-4.5,-765,-112
0.65,-0.18397,-4.5,-773,-112
0.655,-0.18611,-4.5,-782,-112
0.66,-0.18801,-4.5,-790,-112
0.665,-0.18992,-4.5,-798,-112
0.67,-0.19206,-4.5,-807,-112
0.675,-0.19396,-4.5,-815,-112
0.68,-0.19611,-4.5,-824,-112
0.685,-0.19801,-4.5,-832,-112
0.69,-0.19991,-4.5,-840,-112
0.695,-0.20206,-4.5,-849,-112
0.7,-0.2042,-4.5,-858,-120
0.705,-0.2061,-4.5,-866,-120
0.71,-0.20801,-4.5,-874,-120
0.715,-0.21015,-4.5,-883,-88
0.72,-0.21229,-4.5,-892,-88
0.725,-0.21419,-4.5,-900,-88
0.73,-0.21634,-4.5,-909,-88
0.735,-0.21824,-4.5,-917,-112
0.74,-0.22038,-4.5,-926,-112
0.745,-0.22228,-4.5,-934,-112
0.75,-0.22443,-4.5,-943,-112
0.755,-0.22657,-4.5,-952,-112
0.76,-0.22847,-4.5,-960,-112
0.765,-0.23061,-4.5,-969,-112
0.77,-0.23252,-4.5,-977,-81
0.775,-0.23466,-4.5,-986,-81
0.78,-0.23656,-4.5,-994,-81
0.785,-0.23871,-4.5,-1003,-96
0.79,-0.24085,-4.5,-1012,-96
0.795,-0.24275,-4.5,-1020,-96
0.8,-0.24489,-4.5,-1029,-96
0.805,-0.24704,-4.5,-1038,-112
0.81,-0.24894,-4.5,-1046,-112
0.815,-0.25108,-4.5,-1055,-112
0.82,-0.25322,-4.5,-1064,-96
0.825,-0.25513,-4.5,-1072,-96
0.83,-0.25727,-4.5,-1081,-96
0.835,-0.25941,-4.5,-1090,-96
0.84,-0.26132,-4.5,-1098,-99
0.845,-0.26346,-4.5,-1107,-99
0.85,-0.2656,-4.5,-1116,-99
0.855,-0.2675,-4.5,-1124,-103
0.86,-0.26965,-4.5,-1133,-103
0.865,-0.27179,-4.5,-1142,-103
0.87,-0.27369,-4.5,-1150,-103
0.875,-0.27583,-4.5,-1159,-92
0.88,-0.27798,-4.5,-1168,-92
0.885,-0.27988,-4.5,-1176,-92
0.89,-0.28202,-4.5,-1185,-92
0.895,-0.28416,-4.5,-1194,-112
0.9,-0.2863,-4.5,-1203,-112
0.905,-0.28821,-4.5,-1211,-112
0.91,-0.29035,-4.5,-1220,-96
0.915,-0.29249,-4.5,-1229,-96
0.92,-0.29463,-4.5,-1238,-96
0.925,-0.29654,-4.5,-1246,-96
0.93,-0.29868,-4.5,-1255,-103
0.935,-0.30082,-4.5,-1264,-103
0.94,-0.30273,-4.5,-1272,-103
0.945,-0.30487,-4.5,-1281,-71
0.95,-0.30701,-4.5,-1290,-71
0.955,-0.30891,-4.5,-1298,-71
0.96,-0.31106,-4.5,-1307,-71
0.965,-0.3132,-4.5,-1316,-96
0.97,-0.31534,-4.5,-1325,-96
0.975,-0.31724,-4.5,-1333,-96
0.98,-0.31939,-4.5,-1342,-112
0.985,-0.32153,-4.5,-1351,-112
0.99,-0.32367,-4.5,-1360,-112
0.995,-0.32581,-4.5,-1369,-112
1,-0.32772,-4.5,-1377,-103
1.005,-0.32986,-4.5,-1386,-103
1.01,-0.332,-4.5,-1395,-103
1.015,-0.33414,-4.5,-1404,-79
1.02,-0.33605,-4.5,-1412,-79
1.025,-0.33819,-4.5,-1421,-79
1.03,-0.34033,-4.5,-1430,-79
1.035,-0.34247,-4.5,-1439,-96
1.04,-0.34438,-4.5,-1447,-96
1.045,-0.34652,-4.5,-1456,-96
1.05,-0.34866,-4.5,-1465,-112
1.055,-0.3508,-4.5,-1474,-112
1.06,-0.35294,-4.5,-1483,-112
1.065,-0.35508,-4.5,-1492,-112
1.07,-0.35699,-4.5,-1500,-92
1.075,-0.35913,-4.5,-1509,-92
1.08,-0.36127,-4.5,-1518,-92
1.085,-0.36341,-4.5,-1527,-92
1.09,-0.36556,-4.5,-1536,-103
1.095,-0.36746,-4.5,-1544,-103
1.1,-0.3696,-4.5,-1553,-103
1.105,-0.37174,-4.5,-1562,-103
1.11,-0.37389,-4.5,-1571,-103
1.115,-0.37603,-4.5,-1580,-103
1.12,-0.37817,-4.5,-1589,-103
1.125,-0.38031,-4.5,-1598,-92
1.13,-0.38245,-4.5,-1607,-92
1.135,-0.3846,-4.5,-1616,-92
1.14,-0.3865,-4.5,-1624,-99
1.145,-0.38864,-4.5,-1633,-99
1.15,-0.39078,-4.5,-1642,-99
1.155,-0.39293,-4.5,-1651,-99
1.16,-0.39507,-4.5,-1660,-88
1.165,-0.39697,-4.5,-1668,-88
1.17,-0.39911,-4.5,-1677,-88
1.175,-0.40126,-4.5,-1686,-112
1.18,-0.4034,-4.5,-1695,-112
1.185,-0.40554,-4.5,-1704,-112
1.19,-0.40768,-4.5,-1713,-112
1.195,-0.40982,-4.5,-1722,-88
1.2,-0.41173,-4.5,-1730,-88
1.205,-0.41387,-4.5,-1739,-88
1.21,-0.41601,-4.5,-1748,-103
1.215,-0.41815,-4.5,-1757,-103
1.22,-0.42029,-4.5,-1766,-103
1.225,-0.42244,-4.5,-1775,-103
1.23,-0.42458,-4.5,-1784,-103
1.235,-0.42672,-4.5,-1793,-103
1.24,-0.42886,-4.5,-1802,-103
1.245,-0.43077,-4.5,-1810,-103
1.25,-0.43291,-4.5,-1819,-96
1.255,-0.43505,-4.5,-1828,-96
1.26,-0.43719,-4.5,-1837,-96
1.265,-0.43933,-4.5,-1846,-103
1.27,-0.44148,-4.5,-1855,-103
1.275,-0.44362,-4.5,-1864,-103
1.28,-0.44576,-4.5,-1873,-103
1.285,-0.4479,-4.5,-1882,-92
1.29,-0.44981,-4.5,-1890,-92
1.295,-0.45195,-4.5,-1899,-92
1.3,-0.45409,-4.5,-1908,-112
1.305,-0.45623,-4.5,-1917,-112
1.31,-0.45837,-4.5,-1926,-112
1.315,-0.46052,-4.5,-1935,-112
1.32,-0.46266,-4.5,-1944,-96
1.325,-0.4648,-4.5,-1953,-96
1.33,-0.46694,-4.5,-1962,-96
1.335,-0.46885,-4.5,-1970,-88
1.34,-0.47099,-4.5,-1979,-88
1.345,-0.47313,-4.5,-1988,-88
1.35,-0.47527,-4.5,-1997,-88
1.355,-0.47741,-4.5,-2006,-103
1.36,-0.47955,-4.5,-2015,-103
1.365,-0.4817,-4.5,-2024,-103
1.37,-0.48384,-4.5,-2033,-99
1.375,-0.48598,-4.5,-2042,-99
1.38,-0.48812,-4.5,-2051,-99
1.385,-0.49026,-4.5,-2060,-99
1.39,-0.49217,-4.5,-2068,-79
1.395,-0.49431,-4.5,-2077,-79
1.4,-0.49645,-4.5,-2086,-79
1.405,-0.49859,-4.5,-2095,-99
1.41,-0.50074,-4.5,-2104,-99
1.415,-0.50288,-4.5,-2113,-99
1.42,-0.50502,-4.5,-2122,-99
1.425,-0.50716,-4.5,-2131,-79
1.43,-0.5093,-4.5,-2140,-79
1.435,-0.51145,-4.5,-2149,-79
1.44,-0.51359,-4.5,-2158,-79
1.445,-0.51573,-4.5,-2167,-99
1.45,-0.51787,-4.5,-2176,-99
1.455,-0.52001,-4.5,-2185,-99
1.46,-0.52216,-4.5,-2194,-96
1.465,-0.5243,-4.5,-2203,-96
1.47,-0.52644,-4.5,-2212,-96
1.475,-0.52834,-4.5,-2220,-96
1.48,-0.53072,-4.5,-2230,-76
1.485,-0.53263,-4.5,-2238,-76
1.49,-0.53477,-4.5,-2247,-76
1.495,-0.53691,-4.5,-2256,-103
1.5,-0.53905,-4.5,-2265,-103
1.505,-0.54119,-4.5,-2274,-103
1.51,-0.54334,-4.5,-2283,-103
1.515,-0.54548,-4.5,-2292,-103
1.52,-0.54762,-4.5,-2301,-103
1.525,-0.54976,-4.5,-2310,-103
1.53,-0.5519,-4.5,-2319,-96
1.535,-0.55405,-4.5,-2328,-96
1.54,-0.55619,-4.5,-2337,-96
1.545,-0.55833,-4.5,-2346,-96
1.55,-0.56047,-4.5,-2355,-99
1.555,-0.56261,-4.5,-2364,-99
1.56,-0.56452,-4.5,-2372,-99
1.565,-0.56666,-4.5,-2381,-96
1.57,-0.5688,-4.5,-2390,-96
1.575,-0.57094,-4.5,-2399,-96
1.58,-0.57309,-4.5,-2408,-96
1.585,-0.57523,-4.5,-2417,-103
1.59,-0.57737,-4.5,-2426,-103
1.595,-0.57951,-4.5,-2435,-103
1.6,-0.58165,-4.5,-2444,-96
1.605,-0.5838,-4.5,-2453,-96
1.61,-0.58594,-4.5,-2462,-96
1.615,-0.58808,-4.5,-2471,-96
1.62,-0.59022,-4.5,-2480,-92
1.625,-0.59236,-4.5,-2489,-92
1.63,-0.59451,-4.5,-2498,-92
1.635,-0.59665,-4.5,-2507,-92
1.64,-0.59879,-4.5,-2516,-120
1.645,-0.60093,-4.5,-2525,-120
1.65,-0.60307,-4.5,-2534,-120
1.655,-0.60498,-4.5,-2542,-103
1.66,-0.60736,-4.5,-2552,-103
1.665,-0.60926,-4.5,-2560,-103
1.67,-0.6114,-4.5,-2569,-103
1.675,-0.61354,-4.5,-2578,-96
1.68,-0.61569,-4.5,-2587,-96
1.685,-0.61783,-4.5,-2596,-96
1.69,-0.61997,-4.5,-2605,-79
1.695,-0.62211,-4.5,-2614,-79
1.7,-0.62425,-4.5,-2623,-79
1.705,-0.6264,-4.5,-2632,-79
1.71,-0.62854,-4.5,-2641,-99
1.715,-0.63068,-4.5,-2650,-99
1.72,-0.63282,-4.5,-2659,-99
1.725,-0.63496,-4.5,-2668,-92
1.73,-0.63711,-4.5,-2677,-92
1.735,-0.63925,-4.5,-2686,-92
1.74,-0.64139,-4.5,-2695,-92
1.745,-0.64353,-4.5,-2704,-112
1.75,-0.64544,-4.5,-2712,-112
1.755,-0.64758,-4.5,-2721,-112
1.76,-0.64972,-4.5,-2730,-96
1.765,-0.65186,-4.5,-2739,-96
1.77,-0.654,-4.5,-2748,-96
1.775,-0.65615,-4.5,-2757,-96
1.78,-0.65829,-4.5,-2766,-79
1.785,-0.66043,-4.5,-2775,-79
1.79,-0.66257,-4.5,-2784,-79
1.795,-0.66471,-4.5,-2793,-108
1.8,-0.66685,-4.5,-2802,-108
1.805,-0.669,-4.5,-2811,-108
1.81,-0.67114,-4.5,-2820,-108
1.815,-0.67328,-4.5,-2829,-103
1.82,-0.67542,-4.5,-2838,-103
1.825,-0.67756,-4.5,-2847,-103
1.83,-0.67971,-4.5,-2856,-103
1.835,-0.68185,-4.5,-2865,-96
1.84,-0.68399,-4.5,-2874,-96
1.845,-0.68613,-4.5,-2883,-96
1.85,-0.68827,-4.5,-2892,-81
1.855,-0.69042,-4.5,-2901,-81
1.86,-0.69256,-4.5,-2910,-81
1.865,-0.6947,-4.5,-2919,-81
1.87,-0.69684,-4.5,-2928,-99
1.875,-0.69898,-4.5,-2937,-99
1.88,-0.70113,-4.5,-2946,-99
1.885,-0.70327,-4.5,-2955,-92
1.89,-0.70541,-4.5,-2964,-92
1.895,-0.70755,-4.5,-2973,-92
1.9,-0.70969,-4.5,-2982,-92
1.905,-0.71184,-4.5,-2991,-112
1.91,-0.71398,-4.5,-3000,-112
1.915,-0.71612,-4.5,-3009,-112
1.92,-0.71826,-4.5,-3018,-96
1.925,-0.72017,-4.5,-3026,-96
1.93,-0.72255,-4.5,-3036,-96
1.935,-0.72445,-4.5,-3044,-96
1.94,-0.72683,-4.5,-3054,-92
1.945,-0.72873,-4.5,-3062,-92
1.95,-0.73087,-4.5,-3071,-92
1.955,-0.73302,-4.5,-3080,-120
1.96,-0.73516,-4.5,-3089,-120
1.965,-0.7373,-4.5,-3098,-120
1.97,-0.73944,-4.5,-3107,-120
1.975,-0.74158,-4.5,-3116,-103
1.98,-0.74373,-4.5,-3125,-103
1.985,-0.74587,-4.5,-3134,-103
1.99,-0.74801,-4.5,-3143,-97
1.995,-0.75015,-4.5,-3152,-97
2,-0.75229,-4.5,-3161,-97
2.005,-0.75444,-4.5,-3170,-97
2.01,-0.75658,-4.5,-3179,-88
2.015,-0.75872,-4.5,-3188,-88
2.02,-0.76086,-4.5,-3197,-88
2.025,-0.763,-4.5,-3206,-88
2.03,-0.76515,-4.5,-3215,-103
2.035,-0.76729,-4.5,-3224,-103
2.04,-0.76919,-4.5,-3232,-103
2.045,-0.77133,-4.5,-3241,-92
2.05,-0.77348,-4.5,-3250,-92
2.055,-0.77562,-4.5,-3259,-92
2.06,-0.77776,-4.5,-3268,-92
2.065,-0.7799,-4.5,-3277,-112
2.07,-0.78204,-4.5,-3286,-112
2.075,-0.78419,-4.5,-3295,-112
2.08,-0.78633,-4.5,-3304,-96
2.085,-0.78847,-4.5,-3313,-96
2.09,-0.79061,-4.5,-3322,-96
2.095,-0.79275,-4.5,-3331,-96
2.1,-0.79489,-4.5,-3340,-88
2.105,-0.7968,-4.5,-3348,-88
2.11,-0.79894,-4.5,-3357,-88
2.115,-0.80108,-4.5,-3366,-112
2.12,-0.80322,-4.5,-3375,-112
2.125,-0.80537,-4.5,-3384,-112
2.13,-0.80751,-4.5,-3393,-112
2.135,-0.80965,-4.5,-3402,-103
2.14,-0.81179,-4.5,-3411,-103
2.145,-0.81393,-4.5,-3420,-103
2.15,-0.81608,-4.5,-3429,-88
2.155,-0.81822,-4.5,-3438,-88
2.16,-0.82036,-4.5,-3447,-88
2.165,-0.8225,-4.5,-3456,-88
2.17,-0.82464,-4.5,-3465,-103
2.175,-0.82679,-4.5,-3474,-103
2.18,-0.82893,-4.5,-3483,-103
2.185,-0.83107,-4.5,-3492,-96
2.19,-0.83321,-4.5,-3501,-96
2.195,-0.83512,-4.5,-3509,-96
2.2,-0.83726,-4.5,-3518,-96
2.205,-0.8394,-4.5,-3527,-79
2.21,-0.84154,-4.5,-3536,-79
2.215,-0.84368,-4.5,-3545,-79
2.22,-0.84583,-4.5,-3554,-79
2.225,-0.84797,-4.5,-3563,-103
2.23,-0.85011,-4.5,-3572,-103
2.235,-0.85225,-4.5,-3581,-103
2.24,-0.85439,-4.5,-3590,-92
2.245,-0.85653,-4.5,-3599,-92
2.25,-0.85868,-4.5,-3608,-92
2.255,-0.86082,-4.5,-3617,-92
2.26,-0.86296,-4.5,-3626,-88
2.265,-0.8651,-4.5,-3635,-88
2.27,-0.86724,-4.5,-3644,-88
2.275,-0.86915,-4.5,-3652,-103
2.28,-0.87129,-4.5,-3661,-103
2.285,-0.87343,-4.5,-3670,-103
2.29,-0.87557,-4.5,-3679,-103
2.295,-0.87772,-4.5,-3688,-103
2.3,-0.87986,-4.5,-3697,-103
2.305,-0.882,-4.5,-3706,-103
2.31,-0.88414,-4.5,-3715,-88
2.315,-0.88628,-4.5,-3724,-88
2.32,-0.88843,-4.5,-3733,-88
2.325,-0.89057,-4.5,-3742,-88
2.33,-0.89271,-4.5,-3751,-103
2.335,-0.89485,-4.5,-3760,-103
2.34,-0.89699,-4.5,-3769,-103
2.345,-0.89914,-4.5,-3778,-88
2.35,-0.90128,-4.5,-3787,-88
2.355,-0.90342,-4.5,-3796,-88
2.36,-0.90532,-4.5,-3804,-88
2.365,-0.90747,-4.5,-3813,-103
2.37,-0.90961,-4.5,-3822,-103
2.375,-0.91175,-4.5,-3831,-103
2.38,-0.91389,-4.5,-3840,-99
2.385,-0.91603,-4.5,-3849,-99
2.39,-0.91817,-4.5,-3858,-99
2.395,-0.92032,-4.5,-3867,-99
2.4,-0.92246,-4.5,-3876,-71
2.405,-0.9246,-4.5,-3885,-71
2.41,-0.92674,-4.5,-3894,-71
2.415,-0.92888,-4.5,-3903,-71
2.42,-0.93103,-4.5,-3912,-103
2.425,-0.93293,-4.5,-3920,-103
2.43,-0.93531,-4.5,-3930,-103
2.435,-0.93721,-4.5,-3938,-99
2.44,-0.93936,-4.5,-3947,-99
2.445,-0.9415,-4.5,-3956,-99
2.45,-0.94364,-4.5,-3965,-99
2.455,-0.94578,-4.5,-3974,-96
2.46,-0.94792,-4.5,-3983,-96
2.465,-0.95007,-4.5,-3992,-96
2.47,-0.95221,-4.5,-4001,-103
2.475,-0.95435,-4.5,-4010,-103
2.48,-0.95649,-4.5,-4019,-103
2.485,-0.95863,-4.5,-4028,-103
2.49,-0.96054,-4.5,-4036,-96
2.495,-0.96268,-4.5,-4045,-96
2.5,-0.96482,-4.5,-4054,-96
2.505,-0.96696,-4.5,-4063,-112
2.51,-0.96911,-4.5,-4072,-112
2.515,-0.97125,-4.5,-4081,-112
2.52,-0.97339,-4.5,-4090,-112
2.525,-0.97553,-4.5,-4099,-96
2.53,-0.97767,-4.5,-4108,-96
2.535,-0.98005,-4.5,-4118,-96
2.54,-0.98196,-4.5,-4126,-96
2.545,-0.9841,-4.5,-4135,-96
2.55,-0.98624,-4.5,-4144,-96
2.555,-0.98838,-4.5,-4153,-96
2.56,-0.99052,-4.5,-4162,-120
2.565,-0.99267,-4.5,-4171,-120
2.57,-0.99481,-4.5,-4180,-120
2.575,-0.99695,-4.5,-4189,-103
2.58,-0.99909,-4.5,-4198,-103
2.585,-1.0012,-4.5,-4207,-103
