Time(s),Encoder,ADC
0,0,0.00196078
0.01,1,0.00196078
0.02,3,0.00196078
0.03,7,0.00196078
0.04,12,0.00196078
0.05,18,0.00196078
0.06,26,0.00196078
0.07,35,0.00196078
0.08,45,0.00196078
0.09,56,0.00196078
0.1,67,-0.328758
0.11,80,-0.328758
0.12,93,-0.328758
0.13,107,-0.328758
0.14,122,-0.328758
0.15,138,-0.328758
0.16,154,-0.328758
0.17,171,-0.328758
0.18,188,-0.328758
0.19,206,-0.328758
0.2,225,-0.328758
0.21,244,-0.208824
0.22,264,-0.208824
0.23,283,-0.208824
0.24,304,-0.208824
0.25,324,-0.208824
0.26,345,-0.208824
0.27,367,-0.208824
0.28,388,-0.208824
0.29,410,-0.208824
0.3,433,-0.208824
0.31,456,-0.139216
0.32,478,-0.139216
0.33,502,-0.139216
0.34,525,-0.139216
0.35,549,-0.139216
0.36,572,-0.139216
0.37,596,-0.139216
0.38,621,-0.139216
0.39,645,-0.139216
0.4,670,-0.139216
0.41,695,-0.139216
0.42,720,-0.101961
0.43,745,-0.101961
0.44,770,-0.101961
0.45,795,-0.101961
0.46,821,-0.101961
0.47,846,-0.101961
0.48,872,-0.101961
0.49,898,-0.101961
0.5,924,-0.101961
0.51,950,-0.101961
0.52,976,-0.0934641
0.53,1003,-0.0934641
0.54,1029,-0.0934641
0.55,1056,-0.0934641
0.56,1082,-0.0934641
0.57,1109,-0.0934641
0.58,1136,-0.0934641
0.59,1162,-0.0934641
0.6,1189,-0.0934641
0.61,1216,-0.0934641
0.62,1244,-0.0934641
0.63,1271,-0.0673203
0.64,1298,-0.0673203
0.65,1325,-0.0673203
0.66,1352,-0.0673203
0.67,1380,-0.0673203
0.68,1407,-0.0673203
0.69,1434,-0.0673203
0.7,1462,-0.0673203
0.71,1489,-0.0673203
0.72,1516,-0.0673203
0.73,1544,-0.0673203
0.74,1572,-0.0663399
0.75,1599,-0.0663399
0.76,1627,-0.0663399
0.77,1654,-0.0663399
0.78,1682,-0.0663399
0.79,1710,-0.0663399
0.8,1737,-0.0663399
0.81,1765,-0.0663399
0.82,1793,-0.0663399
0.83,1821,-0.0663399
0.84,1848,-0.0660131
0.85,1876,-0.0660131
0.86,1904,-0.0660131
0.87,1932,-0.0660131
0.88,1960,-0.0660131
0.89,1988,-0.0660131
0.9,2016,-0.0660131
0.91,2044,-0.0660131
0.92,2071,-0.0660131
0.93,2099,-0.0660131
0.94,2127,-0.0660131
0.95,2155,-0.0614379
0.96,2183,-0.0614379
0.97,2211,-0.0614379
0.98,2239,-0.0614379
0.99,2267,-0.0614379
1,2295,-0.0614379
1.01,2323,-0.0614379
1.02,2351,-0.0614379
1.03,2379,-0.0614379
1.04,2407,-0.0614379
1.05,2436,-0.0614379
1.06,2464,-0.0656863
1.07,2492,-0.0656863
1.08,2520,-0.0656863
1.09,2548,-0.0656863
1.1,2576,-0.0656863
1.11,2604,-0.0656863
1.12,2632,-0.0656863
1.13,2660,-0.0656863
1.14,2688,-0.0656863
1.15,2716,-0.0656863
1.16,2745,-0.0594771
1.17,2773,-0.0594771
1.18,2801,-0.0594771
1.19,2829,-0.0594771
1.2,2857,-0.0594771
1.21,2886,-0.0594771
1.22,2914,-0.0594771
1.23,2942,-0.0594771
1.24,2970,-0.0594771
1.25,2998,-0.0594771
1.26,3026,-0.0594771
1.27,3055,-0.0617647
1.28,3083,-0.0617647
1.29,3111,-0.0617647
1.3,3139,-0.0617647
1.31,3168,-0.0617647
1.32,3196,-0.0617647
1.33,3224,-0.0617647
1.34,3252,-0.0617647
1.35,3280,-0.0617647
1.36,3309,-0.0617647
1.37,3337,-0.0617647
1.38,3365,-0.0591503
1.39,3393,-0.0591503
1.4,3422,-0.0591503
1.41,3450,-0.0591503
1.42,3478,-0.0591503
1.43,3506,-0.0591503
1.44,3535,-0.0591503
1.45,3563,-0.0591503
1.46,3591,-0.0591503
1.47,3620,-0.0591503
1.48,3648,-0.0598039
1.49,3676,-0.0598039
1.5,3704,-0.0598039
1.51,3732,-0.0598039
1.52,3761,-0.0598039
1.53,3789,-0.0598039
1.54,3817,-0.0598039
1.55,3846,-0.0598039
1.56,3874,-0.0598039
1.57,3902,-0.0598039
1.58,3930,-0.0598039
1.59,3959,-0.0584967
1.6,3987,-0.0584967
1.61,4015,-0.0584967
1.62,4044,-0.0584967
1.63,4072,-0.0584967
1.64,4100,-0.0584967
1.65,4128,-0.0584967
1.66,4157,-0.0584967
1.67,4185,-0.0584967
1.68,4213,-0.0584967
1.69,4242,-0.0568627
1.7,4270,-0.0568627
1.71,4298,-0.0568627
1.72,4326,-0.0568627
1.73,4354,-0.0568627
1.74,4382,-0.0568627
1.75,4411,-0.0568627
1.76,4439,-0.0568627
1.77,4467,-0.0568627
1.78,4495,-0.0568627
1.79,4524,-0.0568627
1.8,4552,-0.0601307
1.81,4580,-0.0601307
1.82,4608,-0.0601307
1.83,4636,-0.0601307
1.84,4665,-0.0601307
1.85,4693,-0.0601307
1.86,4721,-0.0601307
1.87,4749,-0.0601307
1.88,4778,-0.0601307
1.89,4806,-0.0601307
1.9,4834,-0.0601307
1.91,4862,-0.0617647
1.92,4890,-0.0617647
1.93,4919,-0.0617647
1.94,4947,-0.0617647
1.95,4975,-0.0617647
1.96,5003,-0.0617647
1.97,5032,-0.0617647
1.98,5060,-0.0617647
1.99,5088,-0.0617647
2,5116,-0.0617647
2.01,5145,-0.0591503
2.02,5173,-0.0591503
2.03,5201,-0.0591503
2.04,5230,-0.0591503
2.05,5258,-0.0591503
2.06,5286,-0.0591503
2.07,5314,-0.0591503
2.08,5343,-0.0591503
2.09,5371,-0.0591503
2.1,5399,-0.0591503
2.11,5428,-0.0591503
2.12,5456,-0.0627451
2.13,5484,-0.0627451
2.14,5512,-0.0627451
2.15,5541,-0.0627451
2.16,5569,-0.0627451
2.17,5597,-0.0627451
2.18,5626,-0.0627451
2.19,5654,-0.0627451
2.2,5682,-0.0627451
2.21,5711,-0.0627451
2.22,5739,-0.0627451
2.23,5767,-0.0617647
2.24,5796,-0.0617647
2.25,5824,-0.0617647
2.26,5852,-0.0617647
2.27,5880,-0.0617647
2.28,5909,-0.0617647
2.29,5937,-0.0617647
2.3,5965,-0.0617647
2.31,5994,-0.0617647
2.32,6022,-0.0617647
2.33,6050,-0.0588235
2.34,6078,-0.0588235
2.35,6107,-0.0588235
2.36,6135,-0.0588235
2.37,6164,-0.0588235
2.38,6192,-0.0588235
2.39,6220,-0.0588235
2.4,6248,-0.0588235
2.41,6277,-0.0588235
2.42,6305,-0.0588235
2.43,6333,-0.0588235
2.44,6362,-0.0640523
2.45,6390,-0.0640523
2.46,6418,-0.0640523
2.47,6447,-0.0640523
2.48,6475,-0.0640523
2.49,6503,-0.0640523
2.5,6532,-0.0640523
2.51,6560,-0.0640523
2.52,6588,-0.0640523
2.53,6617,-0.0640523
2.54,6645,-0.0640523
2.55,6673,-0.0588235
2.56,6702,-0.0588235
2.57,6730,-0.0588235
2.58,6758,-0.0588235
2.59,6787,-0.0588235
2.6,6815,-0.0588235
2.61,6843,-0.0588235
2.62,6872,-0.0588235
2.63,6900,-0.0588235
2.64,6928,-0.0588235
2.65,6957,-0.0588235
2.66,6985,-0.0588235
2.67,7014,-0.0588235
2.68,7042,-0.0588235
2.69,7070,-0.0588235
2.7,7099,-0.0588235
2.71,7127,-0.0588235
2.72,7155,-0.0588235
2.73,7184,-0.0588235
2.74,7212,-0.0588235
2.75,7240,-0.0588235
2.76,7269,-0.0588235
2.77,7297,-0.0588235
2.78,7326,-0.0588235
2.79,7354,-0.0588235
2.8,7382,-0.0588235
2.81,7411,-0.0588235
2.82,7439,-0.0588235
2.83,7468,-0.0588235
2.84,7496,-0.0588235
2.85,7524,-0.0588235
2.86,7553,-0.0601307
2.87,7581,-0.0601307
2.88,7610,-0.0601307
2.89,7638,-0.0601307
2.9,7666,-0.0601307
2.91,7695,-0.0601307
2.92,7723,-0.0601307
2.93,7752,-0.0601307
2.94,7780,-0.0601307
2.95,7808,-0.0601307
2.96,7837,-0.0601307
2.97,7865,-0.0598039
2.98,7894,-0.0598039
2.99,7922,-0.0598039
3,7950,-0.0598039
3.01,7979,-0.0598039
3.02,8007,-0.0598039
3.03,8036,-0.0598039
3.04,8064,-0.0598039
3.05,8092,-0.0598039
3.06,8121,-0.0598039
3.07,8149,-0.0598039
3.08,8178,-0.0617647
3.09,8206,-0.0617647
3.1,8234,-0.0617647
3.11,8263,-0.0617647
3.12,8291,-0.0617647
3.13,8320,-0.0617647
3.14,8348,-0.0617647
3.15,8376,-0.0617647
3.16,8405,-0.0617647
3.17,8433,-0.0617647
3.18,8462,-0.0624183
3.19,8490,-0.0624183
3.2,8518,-0.0624183
3.21,8547,-0.0624183
3.22,8575,-0.0624183
3.23,8604,-0.0624183
3.24,8632,-0.0624183
3.25,8661,-0.0624183
3.26,8689,-0.0624183
3.27,8717,-0.0624183
3.28,8746,-0.0624183
3.29,8774,-0.0581699
3.3,8803,-0.0581699
3.31,8831,-0.0581699
3.32,8860,-0.0581699
3.33,8888,-0.0581699
3.34,8916,-0.0581699
3.35,8945,-0.0581699
3.36,8973,-0.0581699
3.37,9002,-0.0581699
3.38,9030,-0.0581699
3.39,9058,-0.0581699
3.4,9087,-0.0604575
3.41,9115,-0.0604575
3.42,9144,-0.0604575
3.43,9172,-0.0604575
3.44,9200,-0.0604575
3.45,9229,-0.0604575
3.46,9257,-0.0604575
3.47,9286,-0.0604575
3.48,9314,-0.0604575
3.49,9342,-0.0604575
3.5,9371,-0.0607843
3.51,9399,-0.0607843
3.52,9428,-0.0607843
3.53,9456,-0.0607843
3.54,9485,-0.0607843
3.55,9513,-0.0607843
3.56,9542,-0.0607843
3.57,9570,-0.0607843
3.58,9598,-0.0607843
3.59,9627,-0.0607843
3.6,9655,-0.0607843
3.61,9684,-0.0591503
3.62,9712,-0.0591503
3.63,9740,-0.0591503
3.64,9769,-0.0591503
3.65,9797,-0.0591503
3.66,9826,-0.0591503
3.67,9854,-0.0591503
3.68,9883,-0.0591503
3.69,9911,-0.0591503
3.7,9940,-0.0591503
3.71,9968,-0.0591503
3.72,9996,-0.0571895
3.73,10025,-0.0571895
3.74,10053,-0.0571895
3.75,10082,-0.0571895
3.76,10110,-0.0571895
3.77,10138,-0.0571895
3.78,10167,-0.0571895
3.79,10195,-0.0571895
3.8,10224,-0.0571895
3.81,10252,-0.0571895
3.82,10281,-0.0633987
3.83,10309,-0.0633987
3.84,10337,-0.0633987
3.85,10366,-0.0633987
3.86,10394,-0.0633987
3.87,10423,-0.0633987
3.88,10451,-0.0633987
3.89,10480,-0.0633987
3.9,10508,-0.0633987
3.91,10536,-0.0633987
3.92,10565,-0.0633987
3.93,10594,-0.0591503
3.94,10622,-0.0591503
3.95,10650,-0.0591503
3.96,10679,-0.0591503
3.97,10707,-0.0591503
3.98,10736,-0.0591503
3.99,10764,-0.0591503
4,10792,-0.0591503
4.01,10821,-0.0591503
4.02,10849,-0.0591503
4.03,10878,-0.0591503
4.04,10906,-0.0581699
4.05,10935,-0.0581699
4.06,10963,-0.0581699
4.07,10992,-0.0581699
4.08,11020,-0.0581699
4.09,11049,-0.0581699
4.1,11077,-0.0581699
4.11,11106,-0.0581699
4.12,11134,-0.0581699
4.13,11162,-0.0581699
4.14,11191,-0.0568627
4.15,11219,-0.0568627
4.16,11248,-0.0568627
4.17,11276,-0.0568627
4.18,11305,-0.0568627
4.19,11333,-0.0568627
4.2,11362,-0.0568627
4.21,11390,-0.0568627
4.22,11419,-0.0568627
4.23,11447,-0.0568627
4.24,11476,-0.0568627
4.25,11504,-0.0617647
4.26,11532,-0.0617647
4.27,11561,-0.0617647
4.28,11589,-0.0617647
4.29,11618,-0.0617647
4.3,11646,-0.0617647
4.31,11675,-0.0617647
4.32,11703,-0.0617647
4.33,11732,-0.0617647
4.34,11760,-0.0617647
4.35,11789,-0.0588235
4.36,11817,-0.0588235
4.37,11846,-0.0588235
4.38,11874,-0.0588235
4.39,11903,-0.0588235
4.4,11931,-0.0588235
4.41,11960,-0.0588235
4.42,11988,-0.0588235
4.43,12017,-0.0588235
4.44,12045,-0.0588235
4.45,12074,-0.0588235
4.46,12102,-0.0575163
4.47,12131,-0.0575163
4.48,12159,-0.0575163
4.49,12188,-0.0575163
4.5,12216,-0.0575163
4.51,12245,-0.0575163
4.52,12273,-0.0575163
4.53,12302,-0.0575163
4.54,12330,-0.0575163
4.55,12359,-0.0575163
4.56,12387,-0.0575163
4.57,12416,-0.0578431
4.58,12444,-0.0578431
4.59,12473,-0.0578431
4.6,12501,-0.0578431
4.61,12530,-0.0578431
4.62,12558,-0.0578431
4.63,12587,-0.0578431
4.64,12615,-0.0578431
4.65,12644,-0.0578431
4.66,12672,-0.0578431
4.67,12701,-0.0617647
4.68,12729,-0.0617647
4.69,12758,-0.0617647
4.7,12786,-0.0617647
4.71,12815,-0.0617647
4.72,12844,-0.0617647
4.73,12872,-0.0617647
4.74,12901,-0.0617647
4.75,12929,-0.0617647
4.76,12958,-0.0617647
4.77,12986,-0.0617647
4.78,13015,-0.0575163
4.79,13043,-0.0575163
4.8,13072,-0.0575163
4.81,13100,-0.0575163
4.82,13129,-0.0575163
4.83,13157,-0.0575163
4.84,13186,-0.0575163
4.85,13214,-0.0575163
4.86,13243,-0.0575163
4.87,13272,-0.0575163
4.88,13300,-0.0575163
4.89,13329,-0.0584967
4.9,13357,-0.0584967
4.91,13386,-0.0584967
4.92,13414,-0.0584967
4.93,13443,-0.0584967
4.94,13471,-0.0584967
4.95,13500,-0.0584967
4.96,13528,-0.0584967
4.97,13557,-0.0584967
4.98,13585,-0.0584967
4.99,13614,-0.0604575
